Timestamp,EMG1,EMG2,EMG3,EMG4
2026-09-21 21:44:33.211140352,6.776571837008305e-08,-2.8037879019393586e-05,-8.548820915166289e-06,-1.0929329619102646e-06
2026-09-21 21:44:33.212140288,-6.548596616084978e-07,-2.940283957286738e-05,-7.605216865158582e-07,-2.0972352388071158e-07
2026-09-21 21:44:33.213140480,-5.231489467405481e-06,-2.289920848852489e-05,9.115363354794681e-06,-5.830145710206125e-06
2026-09-21 21:44:33.214140416,-1.422416517016245e-05,-1.9446662918198854e-05,1.2969367162440903e-05,-7.998022738320287e-06
2026-09-21 21:44:33.215140608,-1.5508832802879624e-05,-7.724067472736351e-06,4.779608843819005e-06,-4.706061190518085e-06
2026-09-21 21:44:33.216140544,-1.4384748283191584e-05,6.423206855288299e-08,5.823401352245128e-06,-1.7352670056425268e-06
2026-09-21 21:44:33.217140480,-1.0530744475545362e-05,7.12990640749922e-06,-2.9283987714734394e-06,-1.6549749943806091e-06
2026-09-21 21:44:33.218140672,-9.48695196711924e-06,5.764946763520129e-06,3.6555243241309654e-06,-2.1367256977100624e-06
2026-09-21 21:44:33.219140608,-8.523451469955035e-06,4.480278221308254e-06,2.5314398044429254e-06,1.3158196452422999e-06
2026-09-21 21:44:33.220140544,-7.640242074558046e-06,3.3561937016202137e-06,1.487647296016803e-06,-2.6987679575540824e-06
2026-09-21 21:44:33.221140736,-4.1398453731744667e-07,4.399987119541038e-06,-9.191155186272226e-06,2.1990288132656133e-06
2026-09-21 21:44:33.222140672,-3.30448756358237e-06,-2.3445199985872023e-06,-7.826195542293135e-06,2.8413628569978755e-06
2026-09-21 21:44:33.223140608,8.177233212336432e-06,3.0510719284393417e-07,1.2467721717257518e-06,-1.2943173999246937e-07
2026-09-21 21:44:33.224140800,1.2834154404117726e-05,5.9255298765492626e-06,1.4173743693390861e-05,-6.111824291110679e-07
2026-09-21 21:44:33.225140736,3.419175845920108e-05,-2.103644874296151e-06,-1.4028555597178638e-06,-2.0564336864481447e-06
2026-09-21 21:44:33.226140928,3.1140669307205826e-05,-3.1474373827222735e-06,-1.1840783372463193e-05,-3.341101773912669e-06
2026-09-21 21:44:33.227140864,2.841075365722645e-05,1.670066808401316e-06,-6.220360774022993e-06,-1.3338080862013157e-06
2026-09-21 21:44:33.228140800,2.592171040305402e-05,-4.5123974814487156e-06,2.370856691413792e-06,-5.3483954616240226e-06
2026-09-21 21:44:33.229140992,1.4439989172387868e-05,-1.6556159607716836e-05,-2.2860649551148526e-06,5.931938744652143e-07
2026-09-21 21:44:33.230140928,-1.7310939881554077e-07,-1.8242286387248896e-05,7.5898201430391055e-06,-2.0972352388071158e-07
2026-09-21 21:44:33.231140864,5.447312560136197e-06,-1.3585365195467602e-05,1.1443824405432679e-05,6.37419998383848e-06
2026-09-21 21:44:33.232141056,3.0864129030305776e-07,-7.386853440038976e-07,-1.4831475709797814e-06,3.724572025021189e-06
2026-09-21 21:44:33.233140992,8.096941201074515e-06,7.852531780372374e-06,7.108069894457003e-06,4.5274896365299355e-06
2026-09-21 21:44:33.234140928,1.0312667200196302e-06,1.2509453881648369e-05,2.4511477931810077e-06,2.3596123810420977e-06
2026-09-21 21:44:33.235141120,4.885270300292177e-06,8.334282028954476e-06,-4.6145255510054994e-06,3.00194642477436e-06
2026-09-21 21:44:33.236141056,-3.30448756358237e-06,7.0496143962373026e-06,-8.468529813399073e-06,1.2355278613540577e-06
2026-09-21 21:44:33.237141248,-8.60374257172225e-06,3.5970697354059666e-06,-2.6072320906678215e-06,4.928948328597471e-06
2026-09-21 21:44:33.238141184,-1.5348250599345192e-05,-1.7021862959154532e-06,-1.5634391274943482e-06,2.43990416493034e-06
2026-09-21 21:44:33.239141120,-2.6829970011021942e-05,3.1153185773291625e-06,-2.526940079405904e-06,-4.2243109419359826e-06
2026-09-21 21:44:33.240141312,-2.5304425435024314e-05,3.998527972726151e-06,-3.4101494748028927e-06,-5.187811893847538e-06
2026-09-21 21:44:33.241141248,-2.3939466700539924e-05,4.8014453568612225e-06,-4.213066858937964e-06,-7.717657695138769e-07
2026-09-21 21:44:33.242141184,-2.0085462892893702e-05,-4.6729810492252e-06,-5.999385734867246e-07,-3.1805182061361847e-06
2026-09-21 21:44:33.243141376,-1.6632917322567664e-05,-8.526984856871422e-06,1.3270632734929677e-06,-1.0126411780220224e-06
2026-09-21 21:44:33.244141312,-9.246076842828188e-06,-1.197953042719746e-05,5.502234216692159e-06,-4.304602498450549e-06
2026-09-21 21:44:33.245141248,-2.5015699520736234e-06,-8.848151992424391e-06,9.195655366056599e-06,-2.538184389777598e-06
2026-09-21 21:44:33.246141440,3.6808949062105967e-06,-1.559265911055263e-05,7.750404620310292e-06,-2.0564336864481447e-06
2026-09-21 21:44:33.247141376,6.089646831242135e-06,-1.647586759645492e-05,1.0861881492019165e-06,-2.538184389777598e-06
2026-09-21 21:44:33.248141312,-3.384779120096937e-06,-1.567295112181455e-05,-3.7313166103558615e-06,-2.1367256977100624e-06
2026-09-21 21:44:33.249141504,-9.888411113934126e-06,-1.0614569873723667e-05,-1.1680199349939357e-05,3.9654473766859155e-06
2026-09-21 21:44:33.250141440,-6.435865543608088e-06,-3.3883129617606755e-06,-4.2933588701998815e-06,3.0822379812889267e-06
2026-09-21 21:44:33.251141632,-7.479658506781561e-06,-2.42481200984912e-06,2.4511477931810077e-06,3.885155365423998e-06
2026-09-21 21:44:33.252141568,-8.443159458693117e-06,5.524071639229078e-06,-1.964897819561884e-06,2.720269378642115e-07
2026-09-21 21:44:33.253141504,-5.793531727249501e-06,6.5678641476552e-06,8.473029083688743e-06,-4.304602498450549e-06
2026-09-21 21:44:33.254141696,-4.99061434311443e-06,7.531364644819405e-06,-1.4028555597178638e-06,-3.7425604659802048e-06
2026-09-21 21:44:33.255141632,-5.7132401707349345e-06,1.0180992831010371e-05,-1.5694786270614713e-05,-4.2243109419359826e-06
2026-09-21 21:44:33.256141568,-5.070905899628997e-06,9.378074537380598e-06,-1.384807637805352e-05,3.242821549065411e-06
2026-09-21 21:44:33.257141760,-3.30448756358237e-06,4.31969510827912e-06,1.7285224203078542e-06,2.1990288132656133e-06
2026-09-21 21:44:33.258141696,4.804979198524961e-06,-2.5693461225273495e-07,3.816107437160099e-06,3.162529765177169e-06
2026-09-21 21:44:33.259141632,-5.793531727249501e-06,-8.189769005184644e-07,-1.8043147065327503e-06,-1.2535163023130735e-06
2026-09-21 21:44:33.260141824,-7.1584913712285925e-06,-1.3007276038479176e-06,-1.0395531717222184e-05,-4.505988897562929e-07
2026-09-21 21:44:33.261141760,1.2352404155535623e-05,-3.789771653828211e-06,-8.869988050719257e-06,-2.6184759462921647e-06
2026-09-21 21:44:33.262141952,4.302385059418157e-05,-3.3883129617606755e-06,1.0058970474347007e-06,-1.976142129933578e-06
2026-09-21 21:44:33.263141888,3.892897075274959e-05,-6.198524260980776e-06,7.509528131777188e-06,3.4034051168418955e-06
2026-09-21 21:44:33.264141824,3.52355491486378e-05,-6.5196909417863935e-06,6.385443612089148e-06,5.571282144956058e-06
2026-09-21 21:44:33.265142016,3.186329558957368e-05,-1.1578071280382574e-05,1.1684700439218432e-05,2.2793205971538555e-06
2026-09-21 21:44:33.266141952,2.2710039047524333e-05,-7.964942597027402e-06,6.86719386067125e-06,1.7172783373098355e-06
2026-09-21 21:44:33.267141888,2.5439958335482515e-05,-8.60727686813334e-06,2.4511477931810077e-06,2.1990288132656133e-06
2026-09-21 21:44:33.268142080,1.8374284991296008e-05,-2.183936430810718e-06,4.859900855080923e-06,5.731865712732542e-06
2026-09-21 21:44:33.269142016,1.0826859579537995e-05,3.19561058859108e-06,1.6181036698981188e-05,3.242821549065411e-06
2026-09-21 21:44:33.270141952,8.578691449656617e-06,3.918235961464234e-06,8.151862857630476e-06,1.0749442935775733e-06
2026-09-21 21:44:33.271142144,-1.028986935125431e-05,-5.9576486819423735e-06,-1.4831475709797814e-06,-1.7352670056425268e-06
2026-09-21 21:44:33.272142080,-1.2778913514921442e-05,-1.0132819625141565e-05,-1.9847944088269287e-07,3.724572025021189e-06
2026-09-21 21:44:33.273142272,-1.2971938758710166e-06,-1.3986823432787787e-05,-6.059777206246508e-06,-1.8958505734190112e-06
2026-09-21 21:44:33.274142208,-1.173512100649532e-05,-8.125525710056536e-06,1.3270632734929677e-06,-9.925024642143399e-06
2026-09-21 21:44:33.275142144,-6.11469886280247e-06,-1.7760536138666794e-05,2.290564680151874e-06,-8.881232133717276e-06
2026-09-21 21:44:33.276142336,2.476518375260639e-06,-2.6833502488443628e-05,-2.1254813873383682e-06,-2.1367256977100624e-06
2026-09-21 21:44:33.277142272,7.133439339668257e-06,-1.623499338165857e-05,-4.534233994490933e-06,-4.7863532017800026e-06
2026-09-21 21:44:33.278142208,1.4199113138602115e-05,-2.041016341536306e-05,-2.3663569663767703e-06,-7.717657695138769e-07
2026-09-21 21:44:33.279142400,1.8053116946248338e-05,-1.1337196156091522e-05,4.859900855080923e-06,-2.9396430818451336e-06
2026-09-21 21:44:33.280142336,9.86335908237379e-06,6.326989023364149e-06,-1.884606263047317e-06,-1.0126411780220224e-06
2026-09-21 21:44:33.281142272,1.0907151590799913e-05,1.3874412616132759e-05,-1.0013968676503282e-06,4.366906068753451e-06
2026-09-21 21:44:33.282142464,4.162644927419024e-06,1.612258165550884e-05,4.619025730789872e-06,-3.662268909465638e-06
2026-09-21 21:44:33.283142400,3.27943575939571e-06,1.8210166672361083e-05,6.7869018494093325e-06,-2.6184759462921647e-06
2026-09-21 21:44:33.284142592,-7.351516728704155e-07,1.2589745892910287e-05,-4.3935455096288933e-07,4.1260309444624e-06
2026-09-21 21:44:33.285142528,-7.319074939005077e-06,5.459831982079777e-07,6.305152510321932e-06,-2.900153219798085e-07
2026-09-21 21:44:33.286142464,-4.669447207561461e-06,-9.795604682949488e-07,1.8891055333369877e-06,-2.6987679575540824e-06
2026-09-21 21:44:33.287142656,-2.2606948277825722e-06,8.896324288798496e-06,4.297858595236903e-06,-1.976142129933578e-06
2026-09-21 21:44:33.288142592,-1.5380690001620678e-06,2.0618919734261e-05,-2.2860649551148526e-06,-4.914018703061629e-08
2026-09-21 21:44:33.289142528,3.889328468176245e-07,1.9093376977252774e-05,-1.4028555597178638e-06,8.943535249272827e-06
2026-09-21 21:44:33.290142720,-1.7310939881554077e-07,1.4918205124558881e-05,-8.629112926428206e-06,2.43990416493034e-06
2026-09-21 21:44:33.291142656,3.0864129030305776e-07,1.6202873666770756e-05,-7.665612429264002e-06,1.3158196452422999e-06
2026-09-21 21:44:33.292142592,-4.187696958979359e-06,1.2750328096444719e-05,-1.4831475709797814e-06,2.3596123810420977e-06
2026-09-21 21:44:33.293142784,-5.954115295025986e-06,1.02773344679008e-06,-7.103569714672631e-06,-6.392187970050145e-06
2026-09-21 21:44:33.294142720,-1.0563182968326146e-06,-3.6291880860517267e-06,-4.935692686558468e-06,-5.268103450362105e-06
2026-09-21 21:44:33.295142912,-2.9833204280294012e-06,-2.2642284420726355e-06,-9.512322321825195e-06,-2.1367256977100624e-06
2026-09-21 21:44:33.296142848,-5.954115295025986e-06,-3.548896074789809e-06,-5.337151378626004e-06,4.607781193044502e-06
2026-09-21 21:44:33.297142784,-9.647535989643075e-06,-9.410194252268411e-06,-4.3935455096288933e-07,1.958153688974562e-06
2026-09-21 21:44:33.298142976,-1.7114667571149766e-05,-1.0453986760694534e-05,5.502234216692159e-06,2.7610710731096333e-06
2026-09-21 21:44:33.299142912,-1.8158461898565292e-05,-1.141748816735344e-05,1.1122658179374412e-05,5.931938744652143e-07
2026-09-21 21:44:33.300142848,-1.141395387094235e-05,-8.767859981162474e-06,8.954779332270846e-06,-1.3338080862013157e-06
2026-09-21 21:44:33.301143040,-6.997907803452108e-06,-3.1474373827222735e-06,1.0881782145588659e-05,-4.304602498450549e-06
2026-09-21 21:44:33.302142976,-1.2618330401892308e-05,-5.315314865583787e-06,1.8891055333369877e-06,-1.6549749943806091e-06
2026-09-21 21:44:33.303142912,-1.0450453373778146e-05,-5.9576486819423735e-06,6.04437957463233e-07,8.340691124431032e-07
2026-09-21 21:44:33.304143104,-1.8592361357150367e-06,-2.98685426969314e-06,8.794197128736414e-06,-4.505988897562929e-07
2026-09-21 21:44:33.305143040,-7.351516728704155e-07,-1.461311171624402e-06,1.4073552847548854e-06,7.537774422416987e-07
2026-09-21 21:44:33.306143232,-1.778944124453119e-06,-8.928443094191607e-06,4.297858595236903e-06,-3.9834353628975805e-06
2026-09-21 21:44:33.307143168,1.1115587312815478e-06,-1.8563454432296567e-05,1.6482304090459365e-06,5.931938744652143e-07
2026-09-21 21:44:33.308143104,2.2834929325199482e-07,-1.2059821528964676e-05,7.268653916980838e-06,1.1552360774658155e-06
2026-09-21 21:44:33.309143296,-3.786238039538148e-06,-6.198524260980776e-06,-3.651024599093944e-06,-3.7425604659802048e-06
2026-09-21 21:44:33.310143232,-4.508863639784977e-06,3.4364857128821313e-06,-1.1439324225648306e-05,8.340691124431032e-07
2026-09-21 21:44:33.311143168,-6.435865543608088e-06,7.290489520528354e-06,-4.373650426714448e-06,-9.323493372903613e-07
2026-09-21 21:44:33.312143360,-1.5428540791617706e-05,1.3151788152754307e-05,7.3489441092533525e-06,-4.505988897562929e-07
2026-09-21 21:44:33.313143296,-2.1932173694949597e-05,1.2107993825338781e-05,8.874489139998332e-06,2.038445245489129e-06
2026-09-21 21:44:33.314143232,-1.1333661859680433e-05,1.4291916841102648e-06,1.0239447874482721e-05,4.206322500976967e-06
2026-09-21 21:44:33.315143424,-9.968703125196043e-06,-1.141748816735344e-05,6.385443612089148e-06,3.804863808909431e-06
2026-09-21 21:44:33.316143360,-1.3822706932842266e-05,-9.73136138782138e-06,-6.541527454828611e-06,4.1260309444624e-06
2026-09-21 21:44:33.317143296,-7.961409210111015e-06,-1.9430613065196667e-06,-1.5132744920265395e-05,8.542077011952642e-06
2026-09-21 21:44:33.318143488,-5.745681050939311e-07,5.122612492414191e-06,-1.3607201253762469e-05,5.571282144956058e-06
2026-09-21 21:44:33.319143424,2.6371014882897725e-06,6.808739271946251e-06,-7.605216865158582e-07,5.410699031926924e-06
2026-09-21 21:44:33.320143616,3.600602894948679e-06,1.588170744071249e-05,-2.1254813873383682e-06,1.7172783373098355e-06
2026-09-21 21:44:33.321143552,-2.58186150858819e-06,5.459831982079777e-07,3.0131900530250277e-06,-5.749853698944207e-06
2026-09-21 21:44:33.322143488,-4.99061434311443e-06,-9.891944500850514e-06,4.538733719527954e-06,-4.706061190518085e-06
2026-09-21 21:44:33.323143680,-1.3774854323855834e-06,-4.271522357157664e-06,5.9036933635070454e-06,2.038445245489129e-06
2026-09-21 21:44:33.324143616,-7.351516728704155e-07,8.671494242662448e-07,2.049689555860823e-06,2.9216546408861177e-06
2026-09-21 21:44:33.325143552,4.644395176001126e-06,2.392693204456009e-06,-8.548820915166289e-06,5.129022042638098e-07
2026-09-21 21:44:33.326143744,1.1228319635847583e-05,9.458366548642516e-06,1.3270632734929677e-06,2.680779289221391e-06
2026-09-21 21:44:33.327143680,1.3877946912543848e-05,5.604362740996294e-06,5.181067990633892e-06,2.038445245489129e-06
2026-09-21 21:44:33.328143616,1.3075028618914075e-05,9.056908311322331e-06,1.7285224203078542e-06,2.600487505333149e-06
2026-09-21 21:44:33.329143808,2.15535123970767e-06,1.2188285836600699e-05,-1.4028555597178638e-06,-5.508978574653156e-06
2026-09-21 21:44:33.330143744,-1.197599613078637e-05,1.700579196040053e-05,-4.3935455096288933e-07,-8.961524144979194e-06
2026-09-21 21:44:33.331143936,-1.0129286238225177e-05,1.2589745892910287e-05,3.976691459683934e-06,-7.917731636553071e-06
2026-09-21 21:44:33.332143872,-4.99061434311443e-06,8.575158062740229e-06,4.779608843819005e-06,-6.954230229894165e-06
2026-09-21 21:44:33.333143808,-9.647535989643075e-06,1.2188285836600699e-05,-2.787714379337558e-07,-2.538184389777598e-06
2026-09-21 21:44:33.334144000,-8.282576345663983e-06,6.246697012102231e-06,-7.505028406740166e-06,3.0822379812889267e-06
2026-09-21 21:44:33.335143936,-1.778944124453119e-06,3.837944859697018e-06,-4.6145255510054994e-06,9.143608963313454e-07
2026-09-21 21:44:33.336143872,4.082352916157106e-06,7.451073543052189e-06,3.3343571885779966e-06,-5.027228326071054e-06
2026-09-21 21:44:33.337144064,7.213731350930175e-06,9.378074537380598e-06,-1.964897819561884e-06,5.931938744652143e-07
2026-09-21 21:44:33.338144000,2.3962263639987214e-06,3.998527972726151e-06,-4.855400675296551e-06,-1.5746834378660424e-06
2026-09-21 21:44:33.339143936,5.0458543228160124e-06,1.8306508309251512e-06,1.3270632734929677e-06,3.52318608065616e-07
2026-09-21 21:44:33.340144128,4.242936938680941e-06,3.7576528484351e-06,6.947485871933168e-06,4.5274896365299355e-06
2026-09-21 21:44:33.341144064,-3.786238039538148e-06,-2.8262707019166555e-06,6.224860499060014e-06,9.425286407349631e-06
2026-09-21 21:44:33.342144256,-2.7424450763646746e-06,-1.6074409359134734e-05,2.932898951257812e-06,1.0067620678455569e-05
2026-09-21 21:44:33.343144192,1.4805773673742806e-07,-2.5548835765221156e-05,-1.2422724466887303e-06,2.2793205971538555e-06
2026-09-21 21:44:33.344144128,2.797685510813608e-06,-2.041016341536306e-05,2.832708219102642e-07,9.666161531640682e-06
2026-09-21 21:44:33.345144320,5.206437435845146e-06,-9.490485354035627e-06,4.779608843819005e-06,4.848656772082904e-06
2026-09-21 21:44:33.346144256,1.5933089798636502e-06,3.853992041058518e-07,8.954779332270846e-06,-8.399481885135174e-06
2026-09-21 21:44:33.347144192,1.0184527127421461e-05,1.670066808401316e-06,1.2648200936382636e-05,-6.5527710830792785e-06
2026-09-21 21:44:33.348144384,9.060442607733421e-06,9.8598247859627e-06,1.3129951184964739e-05,-8.238897862611338e-06
2026-09-21 21:44:33.349144320,1.0104235116159543e-05,2.248160910767183e-07,6.4657356233510654e-06,-9.764441529114265e-06
2026-09-21 21:44:33.350144256,7.213731350930175e-06,-1.4067115444049705e-05,-6.140068762761075e-06,-8.399481885135174e-06
2026-09-21 21:44:33.351144448,-2.5015699520736234e-06,-1.2220405551488511e-05,-4.453941983229015e-06,-7.1148133429232985e-06
2026-09-21 21:44:33.352144384,-1.67935013450915e-05,-7.0817332016304135e-06,-5.979485194984591e-06,-5.99072973272996e-06
2026-09-21 21:44:33.353144576,-1.8640212147147395e-05,-5.556189989874838e-06,-7.344445293711033e-06,-6.914739856256347e-07
2026-09-21 21:44:33.354144512,-2.0326338926679455e-05,7.290489520528354e-06,-6.059777206246508e-06,-3.5819768982037203e-06
2026-09-21 21:44:33.355144448,-1.253803839063039e-05,1.588170744071249e-05,4.538733719527954e-06,-7.998022738320287e-06
2026-09-21 21:44:33.356144640,-8.3628674474312e-06,1.1224785339436494e-05,3.6356283317218185e-07,8.340691124431032e-07
2026-09-21 21:44:33.357144576,7.100999823705934e-07,9.8598247859627e-06,1.6482304090459365e-06,1.958153688974562e-06
2026-09-21 21:44:33.358144512,8.899858585209586e-06,7.868583224990289e-07,5.100775979371974e-06,5.0895318963739555e-06
2026-09-21 21:44:33.359144704,7.856066076783463e-06,-9.811652489588596e-06,6.144568487798097e-06,1.1834038559754845e-05
2026-09-21 21:44:33.360144640,-2.8227370876265923e-06,-1.3986823432787787e-05,-5.999385734867246e-07,5.6515741562179755e-06
2026-09-21 21:44:33.361144576,-1.457777443647501e-06,-7.483191893697949e-06,3.816107437160099e-06,3.115159685762592e-08
2026-09-21 21:44:33.362144768,7.615190497745061e-06,-6.359107374009909e-06,7.83069663157221e-06,2.1990288132656133e-06
2026-09-21 21:44:33.363144704,4.162644927419024e-06,-7.402900337183382e-06,1.4414619727176614e-05,2.720269378642115e-07
2026-09-21 21:44:33.364144896,-1.1815413017757237e-05,-2.5853951228782535e-06,6.4657356233510654e-06,8.340691124431032e-07
2026-09-21 21:44:33.365144832,-1.8640212147147395e-05,-1.7021862959154532e-06,-7.4247368502255995e-06,-4.063727374159498e-06
2026-09-21 21:44:33.366144768,-1.2377455277601257e-05,-8.99268911780382e-07,-5.578026502917055e-06,5.129022042638098e-07
2026-09-21 21:44:33.367144960,-2.903028644141159e-06,2.713860340008978e-06,3.0131900530250277e-06,3.4836969007301377e-06
2026-09-21 21:44:33.368144896,5.688187684427248e-06,2.07152606890304e-06,4.538733719527954e-06,3.00194642477436e-06
2026-09-21 21:44:33.369144832,1.0345109330955893e-05,-3.308020950498758e-06,5.9036933635070454e-06,2.520195948818582e-06
2026-09-21 21:44:33.370145024,1.2272112144273706e-05,-5.716773557651322e-06,2.049689555860823e-06,2.720269378642115e-07
2026-09-21 21:44:33.371144960,1.3637070878758095e-05,2.3124011931940913e-06,-5.658318514178973e-06,6.734856583534565e-07
2026-09-21 21:44:33.372144896,1.2352404155535623e-05,5.44377962796716e-06,-1.384807637805352e-05,1.0749442935775733e-06
2026-09-21 21:44:33.373145088,1.1228319635847583e-05,6.262742999751936e-07,-8.548820915166289e-06,6.534783551614964e-06
2026-09-21 21:44:33.374145024,8.096941201074515e-06,1.5094836953721824e-06,5.983985374768963e-06,-6.914739856256347e-07
2026-09-21 21:44:33.375144960,9.060442607733421e-06,3.918235961464234e-06,1.642191273276694e-05,-3.5819768982037203e-06
2026-09-21 21:44:33.376145152,1.1115587312815478e-06,3.19561058859108e-06,6.947485871933168e-06,-2.6987679575540824e-06
2026-09-21 21:44:33.377145088,-2.019819703491521e-06,-1.3810191603624844e-06,-1.8986747818416916e-05,-3.5016853416891536e-06
2026-09-21 21:44:33.378145280,8.706835501470778e-07,-4.351813913672231e-06,-2.2680169422528706e-05,5.972741291770944e-06
2026-09-21 21:44:33.379145216,1.7538930023874855e-06,-1.2461280675779562e-05,-1.2563408745336346e-05,-5.308906452228257e-07
2026-09-21 21:44:33.380145152,-7.078199814714026e-06,-1.3585365195467602e-05,-3.4101494748028927e-06,-6.392187970050145e-06
2026-09-21 21:44:33.381145344,3.5203108836867614e-06,-8.286109732580371e-06,-6.802296752539405e-07,9.946526233761688e-07
2026-09-21 21:44:33.382145280,-3.5453626878734212e-06,-5.3956064220983535e-06,6.86719386067125e-06,3.115159685762592e-08
2026-09-21 21:44:33.383145216,-1.004899422696326e-05,7.868583224990289e-07,9.115363354794681e-06,-8.520575534021191e-07
2026-09-21 21:44:33.384145408,-1.5910292859189212e-05,6.407280125131365e-06,-1.322564003203297e-06,-4.866644758294569e-06
2026-09-21 21:44:33.385145344,-1.6954085367615335e-05,1.2991204130230471e-05,-3.1692743505118415e-06,-1.2535163023130735e-06
2026-09-21 21:44:33.386145280,-1.4063582057133317e-05,1.2107993825338781e-05,1.9693975445989054e-06,-1.8958505734190112e-06
2026-09-21 21:44:33.387145472,-4.348280526755843e-06,1.612258165550884e-05,4.438548444340995e-07,2.2793205971538555e-06
2026-09-21 21:44:33.388145408,-1.342124778602738e-05,1.2509453881648369e-05,-3.7313166103558615e-06,7.537774422416987e-07
2026-09-21 21:44:33.389145600,-1.229716326633934e-05,1.3151788152754307e-05,1.2268769467027596e-07,1.2355278613540577e-06
2026-09-21 21:44:33.390145536,-6.997907803452108e-06,1.1385369361960329e-05,1.0721198123064823e-05,-3.662268909465638e-06
2026-09-21 21:44:33.391145472,-4.107404947717441e-06,9.8598247859627e-06,6.546027634612983e-06,3.56398868461838e-06
2026-09-21 21:44:33.392145664,-1.457777443647501e-06,7.370781531790271e-06,-5.1765678108495194e-06,6.734856583534565e-07
2026-09-21 21:44:33.393145600,-6.548596616084978e-07,1.5897757066341e-06,-6.702111022605095e-06,3.3231133329536533e-06
2026-09-21 21:44:33.394145536,5.929063718213001e-06,-2.42481200984912e-06,3.6356283317218185e-07,4.1260309444624e-06
2026-09-21 21:44:33.395145728,6.812272204115288e-06,-1.7021862959154532e-06,1.6482304090459365e-06,5.129022042638098e-07
2026-09-21 21:44:33.396145664,4.403520051710075e-06,-6.278815817495342e-06,-1.8043147065327503e-06,-4.063727374159498e-06
2026-09-21 21:44:33.397145600,6.571397079824237e-06,-3.308020950498758e-06,3.494941211101832e-06,-1.0929329619102646e-06
2026-09-21 21:44:33.398145792,4.644395176001126e-06,-4.8335641622543335e-06,1.0239447874482721e-05,-6.111824291110679e-07
2026-09-21 21:44:33.399145728,4.082352916157106e-06,-9.329902241006494e-06,5.823401352245128e-06,-5.1075198825856205e-06
2026-09-21 21:44:33.400145920,3.600602894948679e-06,-1.3505073184205685e-05,5.020483968110057e-06,-6.873938218632247e-06
2026-09-21 21:44:33.401145856,-3.86652982342639e-06,-1.3023322935623582e-05,1.3049659173702821e-05,1.2355278613540577e-06
2026-09-21 21:44:33.402145792,-4.9103223318525124e-06,-7.563483904959867e-06,1.4093451682128944e-05,7.096825811458984e-06
2026-09-21 21:44:33.403145984,-5.873823283764068e-06,-3.9503552216046955e-06,9.275947377318516e-06,6.053032848285511e-06
2026-09-21 21:44:33.404145920,-8.523451469955035e-06,4.640862243832089e-06,-4.3935455096288933e-07,3.162529765177169e-06
2026-09-21 21:44:33.405145856,3.0864129030305776e-07,1.0502159057068639e-05,-1.7240226952708326e-06,2.2793205971538555e-06
2026-09-21 21:44:33.406146048,3.7611860079778126e-06,-1.220435592586e-06,-7.585320418002084e-06,-1.7352670056425268e-06
2026-09-21 21:44:33.407145984,2.71739349955169e-06,-9.008735105453525e-06,2.049689555860823e-06,-3.903143806383014e-06
2026-09-21 21:44:33.408145920,-2.100111260006088e-06,-4.8335641622543335e-06,5.9036933635070454e-06,-3.2608102173981024e-06
2026-09-21 21:44:33.409146112,5.495164145941089e-07,-9.795604682949488e-07,-4.694817562267417e-06,-6.231604857021011e-06
2026-09-21 21:44:33.410146048,1.352433855572599e-06,-4.432105470186798e-06,-1.4570702660421375e-05,-2.538184389777598e-06
2026-09-21 21:44:33.411146240,7.93635717855068e-06,-7.563483904959867e-06,-1.0716698852775153e-05,2.9216546408861177e-06
2026-09-21 21:44:33.412146176,1.0585985364741646e-05,-4.6729810492252e-06,-2.526940079405904e-06,-6.914739856256347e-07
2026-09-21 21:44:33.413146112,4.965562311554095e-06,3.275902599852998e-06,-1.4831475709797814e-06,-5.268103450362105e-06
2026-09-21 21:44:33.414146304,2.797685510813608e-06,1.4452407981480064e-07,3.3343571885779966e-06,1.3158196452422999e-06
2026-09-21 21:44:33.415146240,-3.1439039958058856e-06,4.962029379385058e-06,-1.0816888789122459e-06,2.1990288132656133e-06
2026-09-21 21:44:33.416146176,-8.764326594246086e-06,2.3124011931940913e-06,9.356239388580434e-06,-8.238897862611338e-06
2026-09-21 21:44:33.417146368,-6.5964491113845725e-06,9.538658559904434e-06,5.181067990633892e-06,-4.063727374159498e-06
2026-09-21 21:44:33.418146304,-7.23878338249051e-06,8.575158062740229e-06,-6.541527454828611e-06,2.43990416493034e-06
2026-09-21 21:44:33.419146240,-3.0636122119176434e-06,9.458366548642516e-06,4.378149697004119e-06,1.3158196452422999e-06
2026-09-21 21:44:33.420146432,-3.5453626878734212e-06,1.1867119610542431e-05,-2.6875236471823882e-06,4.447198080015369e-06
2026-09-21 21:44:33.421146368,2.6371014882897725e-06,1.1305077350698411e-05,1.1664801604638342e-06,5.731865712732542e-06
2026-09-21 21:44:33.422146560,-8.154432293849823e-07,7.691947757848538e-06,-3.088982339249924e-06,9.143608963313454e-07
2026-09-21 21:44:33.423146496,3.1991437481337925e-06,4.6569121536776947e-07,3.6356283317218185e-07,-1.7352670056425268e-06
2026-09-21 21:44:33.424146432,5.495164145941089e-07,-4.978097649654956e-07,3.494941211101832e-06,3.885155365423998e-06
2026-09-21 21:44:33.425146624,-8.957352406468999e-07,-3.1474373827222735e-06,6.04437957463233e-07,1.7172783373098355e-06
2026-09-21 21:44:33.426146560,5.768479695689166e-06,-3.9503552216046955e-06,-3.8116081668704282e-06,-2.859351525330567e-06
2026-09-21 21:44:33.427146496,-9.760267403180478e-07,-1.78247785243002e-06,5.020483968110057e-06,6.133324859547429e-06
2026-09-21 21:44:33.428146688,-9.281739465905048e-08,-3.7094796425662935e-06,6.144568487798097e-06,4.848656772082904e-06
2026-09-21 21:44:33.429146624,-8.957352406468999e-07,-1.2702155800070614e-05,-1.2422724466887303e-06,1.0709954040066805e-05
2026-09-21 21:44:33.430146560,-4.508863639784977e-06,-8.848151992424391e-06,1.3290535207488574e-05,1.0749442935775733e-06
2026-09-21 21:44:33.431146752,-3.86652982342639e-06,-5.3956064220983535e-06,7.0277778831950855e-06,-1.0647650924511254e-05
2026-09-21 21:44:33.432146688,-6.837324235675624e-06,-9.635104447625054e-08,-2.446648522891337e-06,-1.2173193681519479e-05
2026-09-21 21:44:33.433146880,-4.187696958979359e-06,2.7941514417761937e-06,-7.585320418002084e-06,-7.998022738320287e-06
2026-09-21 21:44:33.434146816,-6.67674112264649e-06,-1.6218942846535356e-06,-9.110863175010309e-06,-6.713355105603114e-06
2026-09-21 21:44:33.435146752,-6.275281975831604e-06,7.868583224990289e-07,-1.04758228189894e-05,-3.2608102173981024e-06
2026-09-21 21:44:33.436146944,-6.67674112264649e-06,1.5094836953721824e-06,-1.4028555597178638e-06,-1.2943173999246937e-07
2026-09-21 21:44:33.437146880,-1.216901864609099e-06,3.4364857128821313e-06,1.1524116416694596e-05,-1.0929329619102646e-06
2026-09-21 21:44:33.438146816,1.0826859579537995e-05,3.998527972726151e-06,-5.19646562224807e-07,1.5566948832201888e-06
2026-09-21 21:44:33.439147008,9.140734618995339e-06,-1.9430613065196667e-06,-1.4650993762188591e-05,2.3596123810420977e-06
2026-09-21 21:44:33.440146944,4.483812062971992e-06,-2.745978690654738e-06,-1.4028555597178638e-06,5.972741291770944e-06
2026-09-21 21:44:33.441146880,3.0864129030305776e-07,8.671494242662448e-07,7.188361905718921e-06,3.115159685762592e-08
2026-09-21 21:44:33.442147072,-3.5453626878734212e-06,2.7941514417761937e-06,1.1845282642752863e-05,2.43990416493034e-06
2026-09-21 21:44:33.443147008,-6.997907803452108e-06,1.02773344679008e-06,7.670112609048374e-06,-1.1732245184248313e-06
2026-09-21 21:44:33.444146944,-1.0129286238225177e-05,4.721153345599305e-06,3.816107437160099e-06,-4.465186066227034e-06
2026-09-21 21:44:33.445147136,-7.23878338249051e-06,2.248160910767183e-07,-9.110863175010309e-06,-1.4943916539778002e-06
2026-09-21 21:44:33.446147072,-6.355573987093521e-06,-2.745978690654738e-06,-1.0796989954542369e-05,3.115159685762592e-08
2026-09-21 21:44:33.447147264,-2.340986384297139e-06,-2.2642284420726355e-06,-1.2322533621045295e-05,-3.421393785174587e-06
2026-09-21 21:44:33.448147200,-4.508863639784977e-06,2.248160910767183e-07,-5.256859367364086e-06,-5.589270585915074e-06
2026-09-21 21:44:33.449147136,-1.0450453373778146e-05,-4.6729810492252e-06,3.816107437160099e-06,-4.384894509712467e-06
2026-09-21 21:44:33.450147328,-1.2525837256305294e-08,-4.030646778119262e-06,4.940191956848139e-06,-3.703071058680507e-07
2026-09-21 21:44:33.451147264,9.86335908237379e-06,-2.2642284420726355e-06,1.2327032891334966e-05,2.2793205971538555e-06
2026-09-21 21:44:33.452147200,7.903915388851601e-07,-1.78247785243002e-06,9.436531399842352e-06,-3.1805182061361847e-06
2026-09-21 21:44:33.453147392,-1.2136580153310206e-05,-4.271522357157664e-06,1.2086158676538616e-05,4.848656772082904e-06
2026-09-21 21:44:33.454147328,-1.0450453373778146e-05,-2.5693461225273495e-07,8.071570846368559e-06,1.7172783373098355e-06
2026-09-21 21:44:33.455147264,-5.793531727249501e-06,2.392693204456009e-06,3.0131900530250277e-06,4.607781193044502e-06
2026-09-21 21:44:33.456147456,1.2721418443106813e-06,-5.0744397412927356e-06,1.1604408427956514e-05,9.023827260534745e-06
2026-09-21 21:44:33.457147392,-2.58186150858819e-06,-1.2461280675779562e-05,5.743110250477912e-06,6.615075108129531e-06
2026-09-21 21:44:33.458147584,-3.7059462556499057e-06,-1.1497779269120656e-05,-8.147362677846104e-06,1.5566948832201888e-06
2026-09-21 21:44:33.459147520,-4.749739218823379e-06,-7.0817332016304135e-06,-9.994072570407297e-06,2.1990288132656133e-06
2026-09-21 21:44:33.460147456,-1.8592361357150367e-06,-4.6729810492252e-06,2.049689555860823e-06,-3.1805182061361847e-06
2026-09-21 21:44:33.461147648,-9.760267403180478e-07,3.853992041058518e-07,3.5752323128690477e-06,1.8778619050863199e-06
2026-09-21 21:44:33.462147584,1.4327258668345166e-06,4.962029379385058e-06,1.3451117411023006e-05,-1.414099870089558e-06
2026-09-21 21:44:33.463147520,-2.1804028165206546e-06,5.524071639229078e-06,-8.408136977777758e-07,-3.1805182061361847e-06
2026-09-21 21:44:33.464147712,1.1115587312815478e-06,2.8744434530381113e-06,1.0058970474347007e-06,-8.078314749582205e-06
2026-09-21 21:44:33.465147648,-4.267988515493926e-06,5.3634876167052425e-06,6.144568487798097e-06,-2.1367256977100624e-06
2026-09-21 21:44:33.466147584,-3.5453626878734212e-06,7.531364644819405e-06,-1.6437311387562659e-06,-4.5454776227416005e-06
2026-09-21 21:44:33.467147776,-4.187696958979359e-06,6.326989023364149e-06,-8.709404937690124e-06,-3.822852249868447e-06
2026-09-21 21:44:33.468147712,-4.749739218823379e-06,3.0350274755619466e-06,-4.855400675296551e-06,-1.8958505734190112e-06
2026-09-21 21:44:33.469147904,-8.443159458693117e-06,5.202904503676109e-06,-8.307945790875237e-06,-2.4578923785156803e-06
2026-09-21 21:44:33.470147840,-1.9395276922296034e-06,1.5094836953721824e-06,1.3270632734929677e-06,-3.9834353628975805e-06
2026-09-21 21:44:33.471147776,6.009354819980217e-06,6.423206855288299e-08,5.181067990633892e-06,2.520195948818582e-06
2026-09-21 21:44:33.472147968,2.3159352622315055e-06,-1.4709449715155642e-05,-6.802296752539405e-07,3.804863808909431e-06
2026-09-21 21:44:33.473147904,-2.9833204280294012e-06,-1.3424781172943767e-05,-8.869988050719257e-06,4.68807320430642e-06
2026-09-21 21:44:33.474147840,-9.281739465905048e-08,-7.322608780668816e-06,-9.913781468640082e-06,5.490990588441491e-06
2026-09-21 21:44:33.475148032,4.323228040448157e-06,-2.9065622584312223e-06,-7.023278158158064e-06,1.0549370927037671e-05
2026-09-21 21:44:33.476147968,3.0864129030305776e-07,-1.0132819625141565e-05,9.256050930162019e-07,6.734856583534565e-07
2026-09-21 21:44:33.477147904,3.921769803127972e-06,-1.3023322935623582e-05,6.224860499060014e-06,-6.392187970050145e-06
2026-09-21 21:44:33.478148096,5.848771706951084e-06,-1.2140113540226594e-05,5.261359092401108e-06,-2.538184389777598e-06
2026-09-21 21:44:33.479148032,6.410813966795104e-06,-8.125525710056536e-06,1.6743078958825208e-05,9.143608963313454e-07
2026-09-21 21:44:33.480148224,6.892564215377206e-06,-7.402900337183382e-06,1.5217536201816984e-05,1.958153688974562e-06
2026-09-21 21:44:33.481148160,-5.745681050939311e-07,-2.8262707019166555e-06,-3.329857918288326e-06,9.946526233761688e-07
2026-09-21 21:44:33.482148096,-1.6183605566766346e-06,6.166405000840314e-06,-5.818901627208106e-06,-1.6549749943806091e-06
2026-09-21 21:44:33.483148288,-2.58186150858819e-06,1.5239373169606552e-05,-1.2643700756598264e-05,-8.520575534021191e-07
2026-09-21 21:44:33.484148224,1.8341841041547013e-06,1.4115288649918512e-05,-6.380943887052126e-06,4.206322500976967e-06
2026-09-21 21:44:33.485148160,4.242936938680941e-06,1.0983909305650741e-05,3.0934820642869454e-06,7.49828450352652e-06
2026-09-21 21:44:33.486148352,4.965562311554095e-06,1.1947411621804349e-05,1.4073552847548854e-06,5.731865712732542e-06
2026-09-21 21:44:33.487148288,4.323228040448157e-06,1.636345768929459e-05,-3.2495659070264082e-06,5.25011546415044e-06
2026-09-21 21:44:33.488148224,1.4805773673742806e-07,1.8772208932205103e-05,-7.4247368502255995e-06,8.702660124981776e-06
2026-09-21 21:44:33.489148416,-6.917616246937541e-06,1.3713830412598327e-05,-1.3928368389315438e-05,5.6515741562179755e-06
2026-09-21 21:44:33.490148352,-1.173512100649532e-05,6.4875721363932826e-06,-1.5052452909003478e-05,4.447198080015369e-06
2026-09-21 21:44:33.491148544,-1.4384748283191584e-05,3.5970697354059666e-06,-3.329857918288326e-06,4.1260309444624e-06
2026-09-21 21:44:33.492148480,-1.0370161362516228e-05,1.1545951565494761e-05,4.458441708266037e-06,-9.323493372903613e-07
2026-09-21 21:44:33.493148416,-6.757032679161057e-06,8.414574040216394e-06,2.832708219102642e-07,-5.99072973272996e-06
2026-09-21 21:44:33.494148608,3.1188526463665767e-06,3.5970697354059666e-06,1.2005866665276699e-05,-1.414099870089558e-06
2026-09-21 21:44:33.495148544,1.2994738426641561e-05,-6.118232249718858e-06,7.3489441092533525e-06,-8.520575534021191e-07
2026-09-21 21:44:33.496148480,1.1710069884429686e-05,-1.5191199963737745e-05,3.173774075548863e-06,-3.5016853416891536e-06
2026-09-21 21:44:33.497148672,1.2834154404117726e-05,-2.3380958737106994e-05,1.2246742699062452e-05,-4.946936769556487e-06
2026-09-21 21:44:33.498148608,1.1790361895691603e-05,-9.490485354035627e-06,1.5699286450399086e-05,-6.231604857021011e-06
2026-09-21 21:44:33.499148544,5.0458543228160124e-06,-1.605948973804061e-08,3.976691459683934e-06,-5.830145710206125e-06
2026-09-21 21:44:33.500148736,4.162644927419024e-06,5.122612492414191e-06,-6.942986146896146e-06,-6.873938218632247e-06
2026-09-21 21:44:33.501148672,6.571397079824237e-06,9.779534593690187e-06,-1.1118157090095337e-05,-5.910437721468043e-06
2026-09-21 21:44:33.502148864,1.1629777873167768e-05,5.604362740996294e-06,3.173774075548863e-06,-3.1805182061361847e-06
2026-09-21 21:44:33.503148800,7.053148237901041e-06,9.458366548642516e-06,5.020483968110057e-06,-4.946936769556487e-06
2026-09-21 21:44:33.504148736,2.8779775220755255e-06,8.334282028954476e-06,-1.1818742251534786e-07,-7.998022738320287e-06
2026-09-21 21:44:33.505148928,4.403520051710075e-06,9.378074537380598e-06,4.538733719527954e-06,-5.187811893847538e-06
2026-09-21 21:44:33.506148864,1.914476115416619e-06,1.2268577847862616e-05,3.173774075548863e-06,-4.505988897562929e-07
2026-09-21 21:44:33.507148800,6.298079711086757e-07,7.868583224990289e-07,1.8891055333369877e-06,-1.0929329619102646e-06
2026-09-21 21:44:33.508148992,6.7319811023480725e-06,5.44377962796716e-06,5.3416511036630254e-06,5.490990588441491e-06
2026-09-21 21:44:33.509148928,9.381608833791688e-06,9.618950571166351e-06,-8.548820915166289e-06,1.873912879091222e-05
2026-09-21 21:44:33.510148864,1.0184527127421461e-05,8.334282028954476e-06,-1.4169243513606489e-05,1.311870710196672e-05
2026-09-21 21:44:33.511149056,3.600602894948679e-06,1.4452407981480064e-07,1.4073552847548854e-06,1.0749442935775733e-06
2026-09-21 21:44:33.512148992,6.250229944271268e-06,-9.490485354035627e-06,3.494941211101832e-06,5.731865712732542e-06
2026-09-21 21:44:33.513148928,1.0264819138683379e-05,-1.8563454432296567e-05,-9.753197446116246e-06,7.096825811458984e-06
2026-09-21 21:44:33.514149120,8.096941201074515e-06,-1.7439369912608527e-05,-4.6145255510054994e-06,-4.625769634003518e-06
2026-09-21 21:44:33.515149056,8.73927456268575e-06,-1.0052527613879647e-05,-6.140068762761075e-06,-3.100226649621618e-06
2026-09-21 21:44:33.516149248,9.30131682252977e-06,4.480278221308254e-06,-4.775109118781984e-06,1.0749442935775733e-06
2026-09-21 21:44:33.517149184,6.651689091086155e-06,1.0743035090854391e-05,-6.059777206246508e-06,-2.0972352388071158e-07
2026-09-21 21:44:33.518149120,1.0104235116159543e-05,1.2589745892910287e-05,4.538733719527954e-06,7.980034752108622e-06
2026-09-21 21:44:33.519149312,7.053148237901041e-06,1.4275872672442347e-05,-5.337151378626004e-06,2.680779289221391e-06
2026-09-21 21:44:33.520149248,8.257524314103648e-06,1.2750328096444719e-05,1.1664801604638342e-06,-2.0972352388071158e-07
2026-09-21 21:44:33.521149184,8.578691449656617e-06,5.684654752258211e-06,4.619025730789872e-06,6.734856583534565e-07
2026-09-21 21:44:33.522149376,6.250229944271268e-06,-6.037940693204291e-06,3.5752323128690477e-06,-1.2943173999246937e-07
2026-09-21 21:44:33.523149312,4.885270300292177e-06,-5.716773557651322e-06,8.39273889141623e-06,5.931938744652143e-07
2026-09-21 21:44:33.524149248,3.4400197819195455e-06,-7.242316769406898e-06,1.7465705241193064e-05,-3.0199346383597003e-06
2026-09-21 21:44:33.525149440,7.615190497745061e-06,-5.877357125427807e-06,1.6582496755290776e-05,4.206322500976967e-06
2026-09-21 21:44:33.526149376,9.381608833791688e-06,-9.73136138782138e-06,4.538733719527954e-06,3.242821549065411e-06
2026-09-21 21:44:33.527149568,1.2031236110487953e-05,-8.60727686813334e-06,-4.0524832911614794e-06,-1.1732245184248313e-06
2026-09-21 21:44:33.528149504,9.542192856315523e-06,-2.2497750251204707e-05,-5.578026502917055e-06,-5.187811893847538e-06
2026-09-21 21:44:33.529149440,1.3556780686485581e-05,-3.197217665729113e-05,-1.4028555597178638e-06,4.286614512238884e-06
2026-09-21 21:44:33.530149632,1.0907151590799913e-05,-3.365830343682319e-05,-2.6875236471823882e-06,3.00194642477436e-06
2026-09-21 21:44:33.531149568,1.435969716112595e-05,-1.952695492946077e-05,-1.5634391274943482e-06,-4.505988897562929e-07
2026-09-21 21:44:33.532149504,1.1308611647109501e-05,-6.278815817495342e-06,-6.8626945903815795e-06,-7.837439625291154e-06
2026-09-21 21:44:33.533149696,1.0907151590799913e-05,-1.1401440360714332e-06,1.8891055333369877e-06,-4.946936769556487e-06
2026-09-21 21:44:33.534149632,1.3396196663961746e-05,-8.928443094191607e-06,3.0131900530250277e-06,-4.063727374159498e-06
2026-09-21 21:44:33.535149568,1.3717362890020013e-05,-7.563483904959867e-06,1.9693975445989054e-06,-1.6549749943806091e-06
2026-09-21 21:44:33.536149760,9.221024811267853e-06,-8.848151992424391e-06,1.0058970474347007e-06,1.958153688974562e-06
2026-09-21 21:44:33.537149696,4.644395176001126e-06,1.7503588196632336e-06,1.2268769467027596e-07,7.899742740846705e-06
2026-09-21 21:44:33.538149888,6.410813966795104e-06,8.816032277536578e-06,2.5314398044429254e-06,-2.538184389777598e-06
2026-09-21 21:44:33.539149824,6.892564215377206e-06,1.531966518086847e-05,3.6356283317218185e-07,-1.1732245184248313e-06
2026-09-21 21:44:33.540149760,1.1388901839382015e-05,2.118096199410502e-05,1.0058970474347007e-06,-2.4578923785156803e-06
2026-09-21 21:44:33.541149952,1.1950944099226035e-05,1.3794120604870841e-05,5.181067990633892e-06,-1.3338080862013157e-06
2026-09-21 21:44:33.542149888,1.4600573194911703e-05,8.976616300060414e-06,1.487647296016803e-06,-2.900153219798085e-07
2026-09-21 21:44:33.543149824,1.3155320630175993e-05,-4.271522357157664e-06,-1.0013968676503282e-06,4.5274896365299355e-06
2026-09-21 21:44:33.544150016,1.2753862392855808e-05,-1.3745948308496736e-05,1.1664801604638342e-06,-5.187811893847538e-06
2026-09-21 21:44:33.545149952,8.257524314103648e-06,-1.8884620658354834e-05,7.650210704923666e-07,-6.472479981312063e-06
2026-09-21 21:44:33.546149888,4.6922485807954217e-07,-1.1096321031800471e-05,-1.0013968676503282e-06,-5.3483954616240226e-06
2026-09-21 21:44:33.547150080,1.5130178780964343e-06,-1.220435592586e-06,4.056983470945852e-06,-4.914018703061629e-08
2026-09-21 21:44:33.548150016,-1.3774854323855834e-06,2.63356832874706e-06,7.670112609048374e-06,9.143608963313454e-07
2026-09-21 21:44:33.549150208,-4.0271133912028745e-06,-7.964942597027402e-06,8.312446880154312e-06,5.330407020665007e-06
2026-09-21 21:44:33.550150144,-1.2525837256305294e-08,-1.2140113540226594e-05,8.874489139998332e-06,6.133324859547429e-06
2026-09-21 21:44:33.551150080,7.100999823705934e-07,-5.6364820011367556e-06,7.650210704923666e-07,2.520195948818582e-06
2026-09-21 21:44:33.552150272,1.352433855572599e-06,2.5532763174851425e-06,-1.689916280156467e-05,3.162529765177169e-06
2026-09-21 21:44:33.553150208,-1.6183605566766346e-06,9.940116797224618e-06,-9.351739208796062e-06,1.91735168186824e-07
2026-09-21 21:44:33.554150144,-5.311781023920048e-06,1.668462391535286e-05,2.1299815671227407e-06,-2.4578923785156803e-06
2026-09-21 21:44:33.555150336,-2.8227370876265923e-06,1.4034996638656594e-05,8.39273889141623e-06,-6.954230229894165e-06
2026-09-21 21:44:33.556150272,-6.548596616084978e-07,3.5970697354059666e-06,2.7723149287339766e-06,-7.516272489738185e-06
2026-09-21 21:44:33.557150208,2.15535123970767e-06,1.3472954378812574e-05,7.910986823844723e-06,-1.5746834378660424e-06
2026-09-21 21:44:33.558150400,-3.336929808028799e-07,1.475762292102445e-05,1.2268769467027596e-07,-7.717657695138769e-07
2026-09-21 21:44:33.559150336,-4.0271133912028745e-06,1.8306508309251512e-06,1.487647296016803e-06,1.3961113154437044e-06
2026-09-21 21:44:33.560150528,-4.508863639784977e-06,-1.0213111636403482e-05,-7.585320418002084e-06,4.68807320430642e-06
2026-09-21 21:44:33.561150464,-1.11730787466513e-05,-5.556189989874838e-06,1.0078863851958886e-05,7.658867616555654e-06
2026-09-21 21:44:33.562150400,-1.9924878870369866e-05,-6.921149633853929e-06,7.5898201430391055e-06,3.9654473766859155e-06
2026-09-21 21:44:33.563150592,-2.578617750259582e-05,-1.3424781172943767e-05,-3.891900178132346e-06,-3.5016853416891536e-06
2026-09-21 21:44:33.564150528,-2.8917555027874187e-05,-1.6877327652764507e-05,-5.979485194984591e-06,-1.3136694178683683e-05
2026-09-21 21:44:33.565150464,-2.410005072306376e-05,-1.1578071280382574e-05,1.1122658179374412e-05,-4.063727374159498e-06
2026-09-21 21:44:33.566150656,-3.028251558134798e-05,-2.8262707019166555e-06,4.297858595236903e-06,1.7975701211980777e-06
2026-09-21 21:44:33.567150592,-2.7873762519448064e-05,5.3634876167052425e-06,-1.0315239705960266e-05,2.8413628569978755e-06
2026-09-21 21:44:33.568150528,-1.6954085367615335e-05,6.423206855288299e-08,-4.694817562267417e-06,-1.976142129933578e-06
2026-09-21 21:44:33.569150720,-9.16578483156627e-06,8.816032277536578e-06,-3.008690782735357e-06,-6.392187970050145e-06
2026-09-21 21:44:33.570150656,3.6808949062105967e-06,5.3634876167052425e-06,4.779608843819005e-06,-5.589270585915074e-06
2026-09-21 21:44:33.571150848,8.819566573947668e-06,6.423206855288299e-08,-2.2860649551148526e-06,-5.308906452228257e-07
2026-09-21 21:44:33.572150784,7.2940233621920925e-06,-1.0614569873723667e-05,-2.1796959117637016e-05,1.3961113154437044e-06
2026-09-21 21:44:33.573150720,1.435969716112595e-05,-6.439399385271827e-06,-7.906487553555053e-06,-2.779059514068649e-06
2026-09-21 21:44:33.574150912,1.9016619262401946e-05,-9.570777365297545e-06,4.699316832557088e-06,-5.830145710206125e-06
2026-09-21 21:44:33.575150848,2.0301285985624418e-05,-1.864374462456908e-05,9.436531399842352e-06,-2.1367256977100624e-06
2026-09-21 21:44:33.576150784,1.6848742234287784e-05,-5.716773557651322e-06,7.188361905718921e-06,-6.914739856256347e-07
2026-09-21 21:44:33.577150976,1.7892534742713906e-05,2.8744434530381113e-06,-7.4247368502255995e-06,4.206322500976967e-06
2026-09-21 21:44:33.578150912,1.5002031432231888e-05,4.399987119541038e-06,-1.8043147065327503e-06,-1.7352670056425268e-06
2026-09-21 21:44:33.579150848,8.819566573947668e-06,5.764946763520129e-06,-1.1818742251534786e-07,2.2793205971538555e-06
2026-09-21 21:44:33.580151040,1.5933089798636502e-06,7.0496143962373026e-06,1.4073552847548854e-06,5.892449280509027e-06
2026-09-21 21:44:33.581150976,-1.2939497537445277e-05,5.9255298765492626e-06,4.239568696107199e-08,-4.914018703061629e-08
2026-09-21 21:44:33.582150912,-1.085191161109833e-05,4.88173736812314e-06,3.8963994484220166e-06,2.3596123810420977e-06
2026-09-21 21:44:33.583151104,-9.005201718537137e-06,1.9912340576411225e-06,-1.964897819561884e-06,4.5274896365299355e-06
2026-09-21 21:44:33.584151040,-7.319074939005077e-06,2.8744434530381113e-06,-5.096276254334953e-06,1.2355278613540577e-06
2026-09-21 21:44:33.585151232,-5.793531727249501e-06,4.6569121536776947e-07,-2.787714379337558e-07,3.00194642477436e-06
2026-09-21 21:44:33.586151168,-4.42857208327041e-06,-1.0453986760694534e-05,-1.1619804354268126e-06,3.52318608065616e-07
2026-09-21 21:44:33.587151104,-5.745681050939311e-07,-5.797065114165889e-06,2.852606939995894e-06,-1.0929329619102646e-06
2026-09-21 21:44:33.588151296,2.8779775220755255e-06,1.2686085710811312e-06,1.3772285456070676e-05,-7.757147614029236e-06
2026-09-21 21:44:33.589151232,-2.5340096954096225e-07,2.5532763174851425e-06,2.852606939995894e-06,-2.9396430818451336e-06
2026-09-21 21:44:33.590151168,2.6371014882897725e-06,-3.308020950498758e-06,-4.213066858937964e-06,-2.0564336864481447e-06
2026-09-21 21:44:33.591151360,5.286729447107064e-06,-1.5030616850708611e-05,-8.067070666584186e-06,3.56398868461838e-06
2026-09-21 21:44:33.592151296,4.483812062971992e-06,-1.9687538951984607e-05,-2.205773398600286e-06,-4.914018703061629e-08
2026-09-21 21:44:33.593151232,2.3159352622315055e-06,-2.1052497686468996e-05,-1.1619804354268126e-06,-1.976142129933578e-06
2026-09-21 21:44:33.594151424,1.6736009911255678e-06,-1.197953042719746e-05,-4.0524832911614794e-06,3.4034051168418955e-06
2026-09-21 21:44:33.595151360,-4.9103223318525124e-06,-8.526984856871422e-06,-1.4028555597178638e-06,1.2877831977675669e-05
2026-09-21 21:44:33.596151552,-7.559950063296128e-06,-1.1401440360714332e-06,1.0058970474347007e-06,1.1552360774658155e-06
2026-09-21 21:44:33.597151488,-5.1511979108909145e-06,9.538658559904434e-06,-1.1619804354268126e-06,-6.633063094341196e-06
2026-09-21 21:44:33.598151424,-1.3180372661736328e-05,1.941454320331104e-05,4.779608843819005e-06,-5.268103450362105e-06
2026-09-21 21:44:33.599151616,-1.2136580153310206e-05,2.3268548829946667e-05,7.188361905718921e-06,3.804863808909431e-06
2026-09-21 21:44:33.600151552,-1.11730787466513e-05,2.2144462491269223e-05,9.356239388580434e-06,3.52318608065616e-07
2026-09-21 21:44:33.601151488,-8.523451469955035e-06,1.6845207937876694e-05,2.1299815671227407e-06,-6.914739856256347e-07
2026-09-21 21:44:33.602151680,-1.0932203622360248e-05,6.166405000840314e-06,-8.548820915166289e-06,2.720269378642115e-07
2026-09-21 21:44:33.603151616,-1.310008065047441e-05,4.8014453568612225e-06,-1.4831475709797814e-06,-6.111824291110679e-07
2026-09-21 21:44:33.604151552,-1.3742414921580348e-05,-1.7021862959154532e-06,5.020483968110057e-06,1.91735168186824e-07
2026-09-21 21:44:33.605151744,-9.567243978381157e-06,4.159111995249987e-06,3.8963994484220166e-06,-6.392187970050145e-06
2026-09-21 21:44:33.606151680,-3.6256544717616634e-06,7.290489520528354e-06,2.852606939995894e-06,-7.275397365447134e-06
2026-09-21 21:44:33.607151872,1.9947681266785366e-06,6.326989023364149e-06,1.3531409422284923e-05,-4.866644758294569e-06
2026-09-21 21:44:33.608151808,5.6078965826600324e-06,-1.6218942846535356e-06,2.0597084585460834e-05,-2.6987679575540824e-06
2026-09-21 21:44:33.609151744,3.6808949062105967e-06,-1.1256904144829605e-05,6.305152510321932e-06,-2.0564336864481447e-06
2026-09-21 21:44:33.610151936,5.447312560136197e-06,-1.254157268704148e-05,-6.942986146896146e-06,-3.822852249868447e-06
2026-09-21 21:44:33.611151872,8.096941201074515e-06,-1.5994117347872816e-05,-5.256859367364086e-06,4.286614512238884e-06
2026-09-21 21:44:33.612151808,6.651689091086155e-06,-1.703790985629894e-05,8.874489139998332e-06,1.4885124983265996e-05
2026-09-21 21:44:33.613152000,2.6371014882897725e-06,-1.9928413166780956e-05,7.0277778831950855e-06,1.0709954040066805e-05
2026-09-21 21:44:33.614151936,-1.0563182968326146e-06,-1.5512367099290714e-05,-5.015984243073035e-06,9.425286407349631e-06
2026-09-21 21:44:33.615151872,-8.523451469955035e-06,-6.680274509562878e-06,-3.4904410313174594e-06,3.56398868461838e-06
2026-09-21 21:44:33.616152064,-9.567243978381157e-06,6.246697012102231e-06,3.5752323128690477e-06,4.326103919538582e-07
2026-09-21 21:44:33.617152000,-1.2457746379368473e-05,1.108024548557296e-06,-2.9283987714734394e-06,-2.4578923785156803e-06
2026-09-21 21:44:33.618152192,-8.04170031187823e-06,-4.1751818002921937e-07,-6.380943887052126e-06,-1.5746834378660424e-06
2026-09-21 21:44:33.619152128,-1.2056288142048288e-05,-1.78247785243002e-06,-3.2495659070264082e-06,8.340691124431032e-07
2026-09-21 21:44:33.620152064,-1.566941682540346e-05,1.2509453881648369e-05,1.5679393072787207e-06,1.1144337719315445e-07
2026-09-21 21:44:33.621152256,-7.078199814714026e-06,1.4356162864714861e-05,6.847299687251507e-07,-3.1805182061361847e-06
2026-09-21 21:44:33.622152192,-8.202284334402066e-06,2.3124011931940913e-06,4.699316832557088e-06,9.946526233761688e-07
2026-09-21 21:44:33.623152128,-8.154432293849823e-07,-5.475898433360271e-06,-3.329857918288326e-06,-2.6987679575540824e-06
2026-09-21 21:44:33.624152320,1.3717362890020013e-05,-1.254157268704148e-05,-2.2860649551148526e-06,-4.144018930674065e-06
2026-09-21 21:44:33.625152256,1.6126115951919928e-05,-1.2461280675779562e-05,2.5314398044429254e-06,-4.914018703061629e-08
2026-09-21 21:44:33.626152192,9.86335908237379e-06,-3.3883129617606755e-06,7.650210704923666e-07,-3.100226649621618e-06
2026-09-21 21:44:33.627152384,1.1710069884429686e-05,-4.5123974814487156e-06,1.6482304090459365e-06,-9.202399269270245e-06
2026-09-21 21:44:33.628152320,6.571397079824237e-06,2.8744434530381113e-06,-7.605216865158582e-07,-6.5527710830792785e-06
2026-09-21 21:44:33.629152512,-1.216901864609099e-06,7.691947757848538e-06,-1.1680199349939357e-05,2.2793205971538555e-06
2026-09-21 21:44:33.630152448,2.9582686238427414e-06,-5.556189989874838e-06,-7.023278158158064e-06,5.731865712732542e-06
2026-09-21 21:44:33.631152384,9.461900845053606e-06,-2.6432044251123443e-05,5.823401352245128e-06,2.600487505333149e-06
2026-09-21 21:44:33.632152576,8.337816325365566e-06,-2.370212496316526e-05,7.509528131777188e-06,-6.151312845759094e-06
2026-09-21 21:44:33.633152512,7.2940233621920925e-06,-6.037940693204291e-06,5.983985374768963e-06,-7.275397365447134e-06
2026-09-21 21:44:33.634152448,6.330521955533186e-06,1.925396099977661e-05,-1.0816888789122459e-06,-4.144018930674065e-06
2026-09-21 21:44:33.635152640,7.213731350930175e-06,2.9370719857979566e-05,-4.935692686558468e-06,-1.2535163023130735e-06
2026-09-21 21:44:33.636152576,1.5933089798636502e-06,2.6319634343963116e-05,-3.8116081668704282e-06,-2.1367256977100624e-06
2026-09-21 21:44:33.637152512,-5.745681050939311e-07,2.358971323701553e-05,-9.110863175010309e-06,-1.3338080862013157e-06
2026-09-21 21:44:33.638152704,4.00206181438989e-06,1.604228964424692e-05,3.494941211101832e-06,-4.946936769556487e-06
2026-09-21 21:44:33.639152640,3.4400197819195455e-06,1.8290458683623e-05,8.633613106212579e-06,-3.0199346383597003e-06
2026-09-21 21:44:33.640152576,3.921769803127972e-06,1.6202873666770756e-05,8.453130817542842e-07,1.1552360774658155e-06
2026-09-21 21:44:33.641152768,7.374314463959308e-06,2.5677301891846582e-05,-3.329857918288326e-06,-3.703071058680507e-07
2026-09-21 21:44:33.642152704,8.658982551423833e-06,2.053862772299908e-05,3.173774075548863e-06,-2.859351525330567e-06
2026-09-21 21:44:33.643152896,9.060442607733421e-06,1.588170744071249e-05,-2.787714379337558e-07,3.804863808909431e-06
2026-09-21 21:44:33.644152832,6.571397079824237e-06,6.00582188781118e-06,-3.4101494748028927e-06,-1.0126411780220224e-06
2026-09-21 21:44:33.645152768,8.899858585209586e-06,-1.3505073184205685e-05,-5.19646562224807e-07,-5.428687018138589e-06
2026-09-21 21:44:33.646152960,9.140734618995339e-06,-2.7395544748287648e-05,-3.1692743505118415e-06,1.91735168186824e-07
2026-09-21 21:44:33.647152896,4.965562311554095e-06,-2.490650149411522e-05,8.453130817542842e-07,6.7756586759060156e-06
2026-09-21 21:44:33.648152832,3.1991437481337925e-06,-3.173130244249478e-05,1.2268769467027596e-07,-4.706061190518085e-06
2026-09-21 21:44:33.649153024,-4.9103223318525124e-06,-2.546854375395924e-05,9.998573659686372e-06,-3.1805182061361847e-06
2026-09-21 21:44:33.650152960,-8.3628674474312e-06,-1.5994117347872816e-05,1.2268769467027596e-07,9.946526233761688e-07
2026-09-21 21:44:33.651152896,-7.319074939005077e-06,-3.9503552216046955e-06,3.976691459683934e-06,4.848656772082904e-06
2026-09-21 21:44:33.652153088,-8.282576345663983e-06,6.969322384975385e-06,-4.213066858937964e-06,-1.0126411780220224e-06
2026-09-21 21:44:33.653153024,-1.2698622413154226e-05,1.4034996638656594e-05,-1.0816888789122459e-06,4.286614512238884e-06
2026-09-21 21:44:33.654153216,-1.3501539797289297e-05,1.531966518086847e-05,-1.1818742251534786e-07,5.25011546415044e-06
2026-09-21 21:44:33.655153152,-1.2778913514921442e-05,1.419558066118043e-05,-1.0013968676503282e-06,7.899742740846705e-06
2026-09-21 21:44:33.656153088,-1.4705915418744553e-05,1.7326958186458796e-05,7.83069663157221e-06,8.702660124981776e-06
2026-09-21 21:44:33.657153280,-1.173512100649532e-05,8.575158062740229e-06,6.706610747642117e-06,-7.717657695138769e-07
2026-09-21 21:44:33.658153216,-1.1253370757913217e-05,-9.089027116715442e-06,3.5752323128690477e-06,3.0822379812889267e-06
2026-09-21 21:44:33.659153152,-3.786238039538148e-06,-3.695026316563599e-05,2.611731815704843e-06,1.958153688974562e-06
2026-09-21 21:44:33.660153344,3.600602894948679e-06,-3.3256845199503005e-05,-1.8043147065327503e-06,5.0895318963739555e-06
2026-09-21 21:44:33.661153280,1.2352404155535623e-05,-1.6395575585193e-05,6.04437957463233e-07,2.720269378642115e-07
2026-09-21 21:44:33.662153216,1.3476488675223663e-05,5.042320481152274e-06,-1.5634391274943482e-06,-5.910437721468043e-06
2026-09-21 21:44:33.663153408,1.4520281183649786e-05,1.3312370356288739e-05,-7.505028406740166e-06,4.5274896365299355e-06
2026-09-21 21:44:33.664153344,9.702776878839359e-06,2.5918176106642932e-05,-3.4904410313174594e-06,5.892449280509027e-06
2026-09-21 21:44:33.665153536,7.053148237901041e-06,3.2742973417043686e-05,-5.658318514178973e-06,4.607781193044502e-06
2026-09-21 21:44:33.666153472,3.038560635104659e-06,3.065538840019144e-05,2.832708219102642e-07,-3.5819768982037203e-06
2026-09-21 21:44:33.667153408,5.206437435845146e-06,2.8808677598135546e-05,7.509528131777188e-06,-6.713355105603114e-06
2026-09-21 21:44:33.668153600,3.27943575939571e-06,2.7122550818603486e-05,1.2327032891334966e-05,-3.822852249868447e-06
2026-09-21 21:44:33.669153536,2.71739349955169e-06,2.2465630536316894e-05,1.1443824405432679e-05,-1.1732245184248313e-06
2026-09-21 21:44:33.670153472,2.235643250969588e-06,1.8290458683623e-05,-5.999385734867246e-07,-3.703071058680507e-07
2026-09-21 21:44:33.671153664,3.6808949062105967e-06,9.217492333846167e-06,1.0861881492019165e-06,-1.0929329619102646e-06
2026-09-21 21:44:33.672153600,-3.336929808028799e-07,5.764946763520129e-06,5.743110250477912e-06,-5.669562597176991e-06
2026-09-21 21:44:33.673153536,1.4805773673742806e-07,2.63356832874706e-06,-1.322564003203297e-06,-3.903143806383014e-06
2026-09-21 21:44:33.674153728,3.600602894948679e-06,-2.5693461225273495e-07,-2.6072320906678215e-06,-8.800940122455359e-06
2026-09-21 21:44:33.675153664,7.615190497745061e-06,-4.6729810492252e-06,-1.553420406708028e-05,-2.0972352388071158e-07
2026-09-21 21:44:33.676153856,9.381608833791688e-06,-4.11093878938118e-06,-1.0395531717222184e-05,2.520195948818582e-06
2026-09-21 21:44:33.677153792,7.856066076783463e-06,-1.7021862959154532e-06,-2.767815658444306e-06,1.3961113154437044e-06
2026-09-21 21:44:33.678153728,2.3962263639987214e-06,-5.315314865583787e-06,-1.2422724466887303e-06,2.43990416493034e-06
2026-09-21 21:44:33.679153920,-5.632948159473017e-06,-1.5191199963737745e-05,-2.6072320906678215e-06,3.4034051168418955e-06
2026-09-21 21:44:33.680153856,-1.0932203622360248e-05,-1.9366370906936936e-05,1.2467721717257518e-06,2.520195948818582e-06
2026-09-21 21:44:33.681153792,-1.1895704119524453e-05,-1.808170236472506e-05,4.699316832557088e-06,1.1352288311172742e-05
2026-09-21 21:44:33.682153984,-1.454533230571542e-05,-1.92057868844131e-05,9.998573659686372e-06,1.0228203791484702e-05
2026-09-21 21:44:33.683153920,-1.3742414921580348e-05,-1.6074409359134734e-05,1.2889075151178986e-05,-1.4943916539778002e-06
2026-09-21 21:44:33.684153856,-1.1574537893466186e-05,-2.089191366394516e-05,1.2005866665276699e-05,3.162529765177169e-06
2026-09-21 21:44:33.685154048,-6.997907803452108e-06,-3.060721792280674e-05,-3.789632430084566e-08,1.7975701211980777e-06
2026-09-21 21:44:33.686153984,-5.231489467405481e-06,-4.232981154927984e-05,-8.629112926428206e-06,3.0822379812889267e-06
2026-09-21 21:44:33.687154176,-5.7132401707349345e-06,-2.5067085516639054e-05,-8.408136977777758e-07,-3.703071058680507e-07
2026-09-21 21:44:33.688154112,-3.224195779694128e-06,-1.3585365195467602e-05,-2.205773398600286e-06,4.928948328597471e-06
2026-09-21 21:44:33.689154048,-2.8227370876265923e-06,-3.1474373827222735e-06,-9.211052542923426e-07,5.892449280509027e-06
2026-09-21 21:44:33.690154240,-1.2525837256305294e-08,6.326989023364149e-06,2.5314398044429254e-06,-3.822852249868447e-06
2026-09-21 21:44:33.691154176,3.27943575939571e-06,1.1465661373222247e-05,5.662818239215994e-06,-2.538184389777598e-06
2026-09-21 21:44:33.692154112,2.2834929325199482e-07,1.612258165550884e-05,-6.942986146896146e-06,-5.99072973272996e-06
2026-09-21 21:44:33.693154304,6.330521955533186e-06,1.748754220898263e-05,-8.629112926428206e-06,-2.859351525330567e-06
2026-09-21 21:44:33.694154240,1.0746569387265481e-05,1.6202873666770756e-05,-3.972191734646913e-06,3.115159685762592e-08
2026-09-21 21:44:33.695154176,1.636699198570568e-05,1.5078789147082716e-05,2.0297879643749184e-07,-2.6184759462921647e-06
2026-09-21 21:44:33.696154368,1.5644365703337826e-05,7.691947757848538e-06,1.487647296016803e-06,-2.0972352388071158e-07
2026-09-21 21:44:33.697154304,1.6286699974443763e-05,6.728447260684334e-06,-1.964897819561884e-06,-9.323493372903613e-07
2026-09-21 21:44:33.698154496,1.5724657714599743e-05,4.078819983988069e-06,1.1664801604638342e-06,-1.5746834378660424e-06
2026-09-21 21:44:33.699154432,1.3075028618914075e-05,-6.359107374009909e-06,4.056983470945852e-06,1.91735168186824e-07
2026-09-21 21:44:33.700154368,5.6078965826600324e-06,7.065663112371112e-07,1.0239447874482721e-05,-2.900153219798085e-07
2026-09-21 21:44:33.701154560,3.0864129030305776e-07,-5.797065114165889e-06,6.224860499060014e-06,2.1990288132656133e-06
2026-09-21 21:44:33.702154496,-4.508863639784977e-06,-2.346125074836891e-05,-1.8043147065327503e-06,2.600487505333149e-06
2026-09-21 21:44:33.703154432,-7.1584913712285925e-06,-1.59138253366109e-05,1.3270632734929677e-06,3.00194642477436e-06
2026-09-21 21:44:33.704154624,-1.5380690001620678e-06,-9.089027116715442e-06,2.290564680151874e-06,-1.0126411780220224e-06
2026-09-21 21:44:33.705154560,5.0458543228160124e-06,-2.8262707019166555e-06,-2.1254813873383682e-06,5.129022042638098e-07
2026-09-21 21:44:33.706154496,7.695482054259628e-06,6.648156158917118e-06,1.8891055333369877e-06,-1.976142129933578e-06
2026-09-21 21:44:33.707154688,1.1710069884429686e-05,1.5239373169606552e-05,-9.030572073243093e-06,1.91735168186824e-07
2026-09-21 21:44:33.708154624,1.2432696166797541e-05,2.615905032143928e-05,-1.2422724466887303e-06,3.885155365423998e-06
2026-09-21 21:44:33.709154560,5.206437435845146e-06,1.6283165678032674e-05,1.2268769467027596e-07,-3.5819768982037203e-06
2026-09-21 21:44:33.710154752,6.1699388425040524e-06,1.4998497135820799e-05,1.4073552847548854e-06,-6.713355105603114e-06
2026-09-21 21:44:33.711154688,5.286729447107064e-06,1.3874412616132759e-05,2.5314398044429254e-06,-3.822852249868447e-06
2026-09-21 21:44:33.712154880,2.8779775220755255e-06,8.575158062740229e-06,5.662818239215994e-06,-1.1732245184248313e-06
2026-09-21 21:44:33.713154816,2.15535123970767e-06,3.7576528484351e-06,8.553321094950661e-06,-3.5819768982037203e-06
2026-09-21 21:44:33.714154752,-1.1366103080945322e-06,4.640862243832089e-06,9.436531399842352e-06,-1.414099870089558e-06
2026-09-21 21:44:33.715154944,-5.311781023920048e-06,-9.795604682949488e-07,2.2102726688899565e-06,-7.717657695138769e-07
2026-09-21 21:44:33.716154880,-1.6183605566766346e-06,-1.1899238415935542e-05,-6.802296752539405e-07,9.946526233761688e-07
2026-09-21 21:44:33.717154816,-7.078199814714026e-06,-1.9687538951984607e-05,2.0297879643749184e-07,3.6442802411329467e-06
2026-09-21 21:44:33.718155008,-1.2136580153310206e-05,-1.2621863788808696e-05,-5.417442935140571e-06,1.91735168186824e-07
2026-09-21 21:44:33.719154944,-8.844618605508003e-06,-3.548896074789809e-06,-1.8043147065327503e-06,1.4764030993319466e-06
2026-09-21 21:44:33.720154880,-2.2606948277825722e-06,-9.635104447625054e-08,2.7723149287339766e-06,2.720269378642115e-07
2026-09-21 21:44:33.721155072,-1.3774854323855834e-06,9.474414355281624e-07,1.0058970474347007e-06,-1.4943916539778002e-06
2026-09-21 21:44:33.722155008,-8.60374257172225e-06,-1.9430613065196667e-06,-2.6875236471823882e-06,-2.4578923785156803e-06
2026-09-21 21:44:33.723155200,-1.1494245882204268e-05,7.065663112371112e-07,2.7723149287339766e-06,-4.505988897562929e-07
2026-09-21 21:44:33.724155136,-8.844618605508003e-06,6.326989023364149e-06,-2.2860649551148526e-06,3.724572025021189e-06
2026-09-21 21:44:33.725155072,-8.04170031187823e-06,5.604362740996294e-06,2.290564680151874e-06,3.162529765177169e-06
2026-09-21 21:44:33.726155264,-5.873823283764068e-06,1.0180992831010371e-05,6.4657356233510654e-06,5.129022042638098e-07
2026-09-21 21:44:33.727155200,-3.465070903985179e-06,1.4837914932286367e-05,2.7723149287339766e-06,1.8778619050863199e-06
2026-09-21 21:44:33.728155136,-8.04170031187823e-06,1.3071496141492389e-05,-5.979485194984591e-06,3.3231133329536533e-06
2026-09-21 21:44:33.729155328,-1.4625623407482635e-05,1.2589745892910287e-05,-2.526940079405904e-06,-3.341101773912669e-06
2026-09-21 21:44:33.730155264,-2.7873762519448064e-05,9.137200322584249e-06,-3.8116081668704282e-06,-4.505988897562929e-07
2026-09-21 21:44:33.731155200,-1.4625623407482635e-05,6.086113899073098e-06,2.290564680151874e-06,-3.100226649621618e-06
2026-09-21 21:44:33.732155392,-1.2939497537445277e-05,3.275902599852998e-06,1.3772285456070676e-05,4.1260309444624e-06
2026-09-21 21:44:33.733155328,-1.141395387094235e-05,-2.183936430810718e-06,-3.4904410313174594e-06,-6.914739856256347e-07
2026-09-21 21:44:33.734155520,-4.348280526755843e-06,-1.422769946657354e-05,-1.0315239705960266e-05,-1.5746834378660424e-06
2026-09-21 21:44:33.735155456,2.15535123970767e-06,-3.3256845199503005e-05,1.2268769467027596e-07,2.43990416493034e-06
2026-09-21 21:44:33.736155392,1.2753862392855808e-05,-1.559265911055263e-05,1.9693975445989054e-06,1.7172783373098355e-06
2026-09-21 21:44:33.737155584,1.4118822946329601e-05,-4.11093878938118e-06,2.832708219102642e-07,3.6442802411329467e-06
2026-09-21 21:44:33.738155520,1.2834154404117726e-05,-6.198524260980776e-06,-1.2422724466887303e-06,-5.308906452228257e-07
2026-09-21 21:44:33.739155456,1.6286699974443763e-05,3.275902599852998e-06,2.932898951257812e-06,-4.2243109419359826e-06
2026-09-21 21:44:33.740155648,1.098744360206183e-05,8.414574040216394e-06,4.217566583974985e-06,-9.684149517852347e-06
2026-09-21 21:44:33.741155584,8.096941201074515e-06,-2.5051035663636867e-06,5.3416511036630254e-06,-2.0972352388071158e-07
2026-09-21 21:44:33.742155520,1.914476115416619e-06,-3.870063210342778e-06,6.385443612089148e-06,6.293908427323913e-06
2026-09-21 21:44:33.743155712,-4.942765485793643e-07,-1.2943030924361665e-05,1.5679393072787207e-06,-1.8958505734190112e-06
2026-09-21 21:44:33.744155648,-1.216901864609099e-06,-7.0817332016304135e-06,-4.6145255510054994e-06,1.2355278613540577e-06
2026-09-21 21:44:33.745155840,-1.8592361357150367e-06,6.808739271946251e-06,-5.999385734867246e-07,4.1260309444624e-06
2026-09-21 21:44:33.746155776,1.1115587312815478e-06,4.962029379385058e-06,1.0319739885744639e-05,3.242821549065411e-06
2026-09-21 21:44:33.747155712,-2.58186150858819e-06,-1.7664305573816819e-07,1.1845282642752863e-05,8.340691124431032e-07
2026-09-21 21:44:33.748155904,-1.004899422696326e-05,7.611656656081323e-06,7.670112609048374e-06,-4.2243109419359826e-06
2026-09-21 21:44:33.749155840,-1.5348250599345192e-05,1.1786827599280514e-05,-6.621819466090528e-06,-9.323493372903613e-07
2026-09-21 21:44:33.750155776,-1.2457746379368473e-05,1.5640831406926736e-05,-1.60962463269243e-05,-3.703071058680507e-07
2026-09-21 21:44:33.751155968,-1.3340955774765462e-05,7.451073543052189e-06,-4.0524832911614794e-06,-8.479773896397091e-06
2026-09-21 21:44:33.752155904,-6.11469886280247e-06,4.31969510827912e-06,3.735816335392883e-06,-2.900153219798085e-07
2026-09-21 21:44:33.753155840,2.6371014882897725e-06,-1.0213111636403482e-05,-4.3935455096288933e-07,-1.3338080862013157e-06
2026-09-21 21:44:33.754156032,6.089646831242135e-06,-8.125525710056536e-06,-6.942986146896146e-06,-3.703071058680507e-07
2026-09-21 21:44:33.755155968,7.133439339668257e-06,-9.972236512112431e-06,-1.0395531717222184e-05,-3.0199346383597003e-06
2026-09-21 21:44:33.756156160,8.096941201074515e-06,-1.3810191603624844e-06,-7.605216865158582e-07,-3.822852249868447e-06
2026-09-21 21:44:33.757156096,1.4805773673742806e-07,1.4452407981480064e-07,-2.0451898308238015e-06,1.2355278613540577e-06
2026-09-21 21:44:33.758156032,-8.957352406468999e-07,4.31969510827912e-06,1.4073552847548854e-06,-3.341101773912669e-06
2026-09-21 21:44:33.759156224,6.776571837008305e-08,1.0823327102116309e-05,6.706610747642117e-06,4.447198080015369e-06
2026-09-21 21:44:33.760156160,-9.647535989643075e-06,7.370781531790271e-06,7.670112609048374e-06,-2.9396430818451336e-06
2026-09-21 21:44:33.761156096,-5.793531727249501e-06,2.07152606890304e-06,6.7869018494093325e-06,1.8778619050863199e-06
2026-09-21 21:44:33.762156288,-2.340986384297139e-06,6.889031283208169e-06,4.378149697004119e-06,9.946526233761688e-07
2026-09-21 21:44:33.763156224,7.903915388851601e-07,4.2394030970172025e-06,6.546027634612983e-06,-1.414099870089558e-06
2026-09-21 21:44:33.764156160,3.6808949062105967e-06,1.8306508309251512e-06,9.837989637162536e-06,-6.914739856256347e-07
2026-09-21 21:44:33.765156352,6.330521955533186e-06,-3.227729393984191e-06,3.2540660868107807e-06,-2.6184759462921647e-06
2026-09-21 21:44:33.766156288,-2.5015699520736234e-06,1.3489005823430489e-06,-1.1619804354268126e-06,3.52318608065616e-07
2026-09-21 21:44:33.767156480,9.509751066616445e-07,9.137200322584249e-06,-3.590625397009717e-07,8.340691124431032e-07
2026-09-21 21:44:33.768156416,-2.1804028165206546e-06,1.0180992831010371e-05,-3.972191734646913e-06,-6.111824291110679e-07
2026-09-21 21:44:33.769156352,7.100999823705934e-07,1.4291916841102648e-06,-8.548820915166289e-06,-1.0126411780220224e-06
2026-09-21 21:44:33.770156544,-1.9395276922296034e-06,-6.760566520824796e-06,-1.964897819561884e-06,2.680779289221391e-06
2026-09-21 21:44:33.771156480,-1.1366103080945322e-06,-2.2738624466001056e-05,9.516821592114866e-06,8.140617865137756e-06
2026-09-21 21:44:33.772156416,-4.1398453731744667e-07,-1.1256904144829605e-05,-4.6145255510054994e-06,-1.3338080862013157e-06
2026-09-21 21:44:33.773156608,2.2834929325199482e-07,3.3561937016202137e-06,-1.0234947694698349e-05,-5.187811893847538e-06
2026-09-21 21:44:33.774156544,-3.336929808028799e-07,1.2830620107706636e-05,-8.548820915166289e-06,3.00194642477436e-06
2026-09-21 21:44:33.775156480,-8.154432293849823e-07,1.7969292457564734e-05,-3.891900178132346e-06,6.133324859547429e-06
2026-09-21 21:44:33.776156672,2.6371014882897725e-06,1.644374970055651e-05,2.832708219102642e-07,5.169823452888522e-06
2026-09-21 21:44:33.777156608,1.352433855572599e-06,1.5078789147082716e-05,1.5679393072787207e-06,2.520195948818582e-06
2026-09-21 21:44:33.778156544,4.885270300292177e-06,1.3232078345026821e-05,2.6920238269667607e-06,9.143608963313454e-07
2026-09-21 21:44:33.779156736,2.8779775220755255e-06,1.5094836953721824e-06,-8.408136977777758e-07,1.1144337719315445e-07
2026-09-21 21:44:33.780156672,5.367021458368981e-06,3.0350274755619466e-06,2.0297879643749184e-07,2.2793205971538555e-06
2026-09-21 21:44:33.781156864,3.6808949062105967e-06,-1.1401440360714332e-06,5.020483968110057e-06,4.206322500976967e-06
2026-09-21 21:44:33.782156800,-8.154432293849823e-07,-2.42481200984912e-06,-1.1619804354268126e-06,1.2355278613540577e-06
2026-09-21 21:44:33.783156736,-4.107404947717441e-06,-1.3007276038479176e-06,-9.994072570407297e-06,-2.4578923785156803e-06
2026-09-21 21:44:33.784156928,-9.48695196711924e-06,-4.432105470186798e-06,6.04437957463233e-07,-2.9396430818451336e-06
2026-09-21 21:44:33.785156864,-1.0209578249487095e-05,-7.322608780668816e-06,1.9693975445989054e-06,1.958153688974562e-06
2026-09-21 21:44:33.786156800,-4.267988515493926e-06,-1.8804328647092916e-05,3.2540660868107807e-06,-1.3338080862013157e-06
2026-09-21 21:44:33.787156992,-2.5340096954096225e-07,-1.727878589008469e-05,-2.6072320906678215e-06,4.045738933200482e-06
2026-09-21 21:44:33.788156928,-2.4212783955590567e-06,-1.0213111636403482e-05,-7.906487553555053e-06,1.8778619050863199e-06
2026-09-21 21:44:33.789156864,-4.942765485793643e-07,-1.4067115444049705e-05,-5.015984243073035e-06,-2.6987679575540824e-06
2026-09-21 21:44:33.790157056,-3.465070903985179e-06,-2.2256874217418954e-05,-4.132775302423397e-06,2.720269378642115e-07
2026-09-21 21:44:33.791156992,2.476518375260639e-06,-1.695761784503702e-05,1.487647296016803e-06,1.7975701211980777e-06
2026-09-21 21:44:33.792157184,3.27943575939571e-06,-1.792112016119063e-05,7.650210704923666e-07,2.2793205971538555e-06
2026-09-21 21:44:33.793157120,1.1308611647109501e-05,-1.703790985629894e-05,-2.526940079405904e-06,-4.384894509712467e-06
2026-09-21 21:44:33.794157056,1.0264819138683379e-05,-1.3023322935623582e-05,4.056983470945852e-06,-3.421393785174587e-06
2026-09-21 21:44:33.795157248,3.5203108836867614e-06,-6.439399385271827e-06,1.5538704246864654e-05,9.946526233761688e-07
2026-09-21 21:44:33.796157184,8.706835501470778e-07,1.5094836953721824e-06,2.3327003873419017e-05,1.91735168186824e-07
2026-09-21 21:44:33.797157120,-3.1439039958058856e-06,4.640862243832089e-06,7.670112609048374e-06,-5.308906452228257e-07
2026-09-21 21:44:33.798157312,-6.757032679161057e-06,-4.11093878938118e-06,-2.767815658444306e-06,-3.822852249868447e-06
2026-09-21 21:44:33.799157248,-8.684034582984168e-06,-2.98685426969314e-06,-9.211052542923426e-07,-7.998022738320287e-06
2026-09-21 21:44:33.800157184,-2.100111260006088e-06,-6.118232249718858e-06,4.217566583974985e-06,-7.516272489738185e-06
2026-09-21 21:44:33.801157376,-1.216901864609099e-06,-7.0817332016304135e-06,-4.3935455096288933e-07,-6.071020834497176e-06
2026-09-21 21:44:33.802157312,1.1918507425434655e-06,4.399987119541038e-06,-1.0315239705960266e-05,-2.0564336864481447e-06
2026-09-21 21:44:33.803157504,-3.86652982342639e-06,1.2188285836600699e-05,-2.203783515142277e-05,-1.5746834378660424e-06
2026-09-21 21:44:33.804157440,-1.2457746379368473e-05,1.636345768929459e-05,-7.906487553555053e-06,-2.0564336864481447e-06
2026-09-21 21:44:33.805157376,-9.005201718537137e-06,1.5078789147082716e-05,1.5679393072787207e-06,9.946526233761688e-07
2026-09-21 21:44:33.806157568,-7.961409210111015e-06,1.6202873666770756e-05,-1.1818742251534786e-07,5.931938744652143e-07
2026-09-21 21:44:33.807157504,-8.92490970727522e-06,1.9334251192049123e-05,1.4073552847548854e-06,9.143608963313454e-07
2026-09-21 21:44:33.808157440,-1.3340955774765462e-05,2.222475450253114e-05,5.582526227954077e-06,-7.717657695138769e-07
2026-09-21 21:44:33.809157632,-6.11469886280247e-06,8.976616300060414e-06,-6.140068762761075e-06,2.520195948818582e-06
2026-09-21 21:44:33.810157568,2.6371014882897725e-06,3.3561937016202137e-06,-4.6145255510054994e-06,-5.308906452228257e-07
2026-09-21 21:44:33.811157504,1.323561264143791e-05,-1.78247785243002e-06,5.261359092401108e-06,6.734856583534565e-07
2026-09-21 21:44:33.812157696,1.1870653906953521e-05,-3.308020950498758e-06,3.976691459683934e-06,3.162529765177169e-06
2026-09-21 21:44:33.813157632,1.0585985364741646e-05,-1.9430613065196667e-06,2.852606939995894e-06,5.490990588441491e-06
2026-09-21 21:44:33.814157824,1.1710069884429686e-05,-6.5839333274198e-07,8.151862857630476e-06,6.293908427323913e-06
2026-09-21 21:44:33.815157760,2.0750592284457525e-06,-1.78247785243002e-06,5.261359092401108e-06,2.118737029377371e-06
2026-09-21 21:44:33.816157696,3.359727770657628e-06,-4.913856173516251e-06,1.1443824405432679e-05,1.5566948832201888e-06
2026-09-21 21:44:33.817157888,9.221024811267853e-06,5.764946763520129e-06,1.0058970474347007e-06,-2.1367256977100624e-06
2026-09-21 21:44:33.818157824,1.8341841041547013e-06,4.399987119541038e-06,-1.754149707267061e-05,5.330407020665007e-06
2026-09-21 21:44:33.819157760,8.706835501470778e-07,3.1153185773291625e-06,-4.935692686558468e-06,4.286614512238884e-06
2026-09-21 21:44:33.820157952,1.7538930023874855e-06,1.9912340576411225e-06,1.8891055333369877e-06,-5.308906452228257e-07
2026-09-21 21:44:33.821157888,9.509751066616445e-07,-9.73136138782138e-06,1.2327032891334966e-05,-1.414099870089558e-06
2026-09-21 21:44:33.822157824,3.1188526463665767e-06,-2.3862708985689096e-05,1.4173743693390861e-05,2.600487505333149e-06
2026-09-21 21:44:33.823158016,3.7611860079778126e-06,-2.20159981836332e-05,9.035071343532763e-06,-1.0126411780220224e-06
2026-09-21 21:44:33.824157952,1.9947681266785366e-06,-2.71546705334913e-05,1.0560615919530392e-05,-2.9396430818451336e-06
2026-09-21 21:44:33.825158144,2.476518375260639e-06,-2.5629127776483074e-05,3.494941211101832e-06,-1.1732245184248313e-06
2026-09-21 21:44:33.826158080,4.965562311554095e-06,-9.972236512112431e-06,7.3489441092533525e-06,-2.6987679575540824e-06
2026-09-21 21:44:33.827158016,6.250229944271268e-06,-3.7094796425662935e-06,6.224860499060014e-06,-1.2535163023130735e-06
2026-09-21 21:44:33.828158208,1.0746569387265481e-05,-9.329902241006494e-06,3.0934820642869454e-06,-1.6549749943806091e-06
2026-09-21 21:44:33.829158144,1.1629777873167768e-05,-9.249610229744576e-06,4.056983470945852e-06,-2.297309265486547e-06
2026-09-21 21:44:33.830158080,7.454606475221226e-06,-7.563483904959867e-06,-5.337151378626004e-06,3.804863808909431e-06
2026-09-21 21:44:33.831158272,3.7611860079778126e-06,-6.037940693204291e-06,-2.6875236471823882e-06,2.9216546408861177e-06
2026-09-21 21:44:33.832158208,-3.7059462556499057e-06,-4.6729810492252e-06,-1.884606263047317e-06,2.118737029377371e-06
2026-09-21 21:44:33.833158144,-9.005201718537137e-06,4.399987119541038e-06,-2.6072320906678215e-06,-1.4943916539778002e-06
2026-09-21 21:44:33.834158336,-1.1895704119524453e-05,-1.461311171624402e-06,6.847299687251507e-07,-4.7863532017800026e-06
2026-09-21 21:44:33.835158272,-1.2778913514921442e-05,3.837944859697018e-06,2.4511477931810077e-06,-7.757147614029236e-06
2026-09-21 21:44:33.836158464,-1.5187665667326655e-05,8.655450074002147e-06,-2.446648522891337e-06,-6.914739856256347e-07
2026-09-21 21:44:33.837158400,-7.1584913712285925e-06,6.00582188781118e-06,-1.8043147065327503e-06,-1.6549749943806091e-06
2026-09-21 21:44:33.838158336,2.476518375260639e-06,8.414574040216394e-06,-2.3663569663767703e-06,-2.538184389777598e-06
2026-09-21 21:44:33.839158528,-1.3774854323855834e-06,1.7889000446302816e-05,-6.059777206246508e-06,3.0822379812889267e-06
2026-09-21 21:44:33.840158464,-2.5015699520736234e-06,1.660433190409094e-05,-5.578026502917055e-06,2.3596123810420977e-06
2026-09-21 21:44:33.841158400,-1.457777443647501e-06,1.54802473844029e-05,-7.745903531031217e-06,-2.217017254224629e-06
2026-09-21 21:44:33.842158592,5.286729447107064e-06,1.2348869859124534e-05,-1.1439324225648306e-05,-3.9834353628975805e-06
2026-09-21 21:44:33.843158528,9.702776878839359e-06,1.3312370356288739e-05,-9.994072570407297e-06,-2.4578923785156803e-06
2026-09-21 21:44:33.844158464,1.3717362890020013e-05,1.419558066118043e-05,-5.979485194984591e-06,5.009240339859389e-06
2026-09-21 21:44:33.845158656,7.133439339668257e-06,2.151818080164958e-06,-3.789632430084566e-08,8.140617865137756e-06
2026-09-21 21:44:33.846158592,-2.58186150858819e-06,4.6569121536776947e-07,-8.408136977777758e-07,1.3961113154437044e-06
2026-09-21 21:44:33.847158528,-6.435865543608088e-06,1.9912340576411225e-06,-1.5634391274943482e-06,2.2793205971538555e-06
2026-09-21 21:44:33.848158720,-7.559950063296128e-06,6.262742999751936e-07,-4.855400675296551e-06,-1.2943173999246937e-07
2026-09-21 21:44:33.849158656,-8.60374257172225e-06,-6.5839333274198e-07,-3.088982339249924e-06,5.931938744652143e-07
2026-09-21 21:44:33.850158848,-1.8592361357150367e-06,4.6569121536776947e-07,2.852606939995894e-06,-3.9834353628975805e-06
2026-09-21 21:44:33.851158784,-2.7424450763646746e-06,-1.1256904144829605e-05,5.261359092401108e-06,-5.749853698944207e-06
2026-09-21 21:44:33.852158720,-3.336929808028799e-07,-9.73136138782138e-06,5.983985374768963e-06,1.91735168186824e-07
2026-09-21 21:44:33.853158912,3.27943575939571e-06,-2.665687134140171e-06,4.239568696107199e-08,-6.111824291110679e-07
2026-09-21 21:44:33.854158848,1.0505693353479728e-05,1.1883165598192136e-06,7.268653916980838e-06,-2.779059514068649e-06
2026-09-21 21:44:33.855158784,1.3396196663961746e-05,-4.6729810492252e-06,2.4511477931810077e-06,-3.421393785174587e-06
2026-09-21 21:44:33.856158976,5.447312560136197e-06,-1.6395575585193e-05,-1.964897819561884e-06,-4.505988897562929e-07
2026-09-21 21:44:33.857158912,6.491105978057021e-06,-8.60727686813334e-06,-2.767815658444306e-06,-1.976142129933578e-06
2026-09-21 21:44:33.858158848,-2.5340096954096225e-07,-7.242316769406898e-06,8.151862857630476e-06,-1.4943916539778002e-06
2026-09-21 21:44:33.859159040,-1.1366103080945322e-06,-1.3745948308496736e-05,9.677405614638701e-06,3.4034051168418955e-06
2026-09-21 21:44:33.860158976,-1.3180372661736328e-05,-1.7198493878822774e-05,2.611731815704843e-06,6.695367119391449e-06
2026-09-21 21:44:33.861159168,-1.4866499441268388e-05,-2.8921089324285276e-05,1.3270632734929677e-06,1.3158196452422999e-06
2026-09-21 21:44:33.862159104,-3.946821379940957e-06,-1.1658363291644491e-05,9.516821592114866e-06,-3.7425604659802048e-06
2026-09-21 21:44:33.863159040,3.1188526463665767e-06,-1.7664305573816819e-07,1.4816077964496799e-05,-4.384894509712467e-06
2026-09-21 21:44:33.864159232,6.972856226639124e-06,1.0261284842272289e-05,8.071570846368559e-06,-3.822852249868447e-06
2026-09-21 21:44:33.865159168,3.5203108836867614e-06,2.3509423044743016e-05,5.421943114924943e-06,-5.3483954616240226e-06
2026-09-21 21:44:33.866159104,4.56410407423391e-06,2.5195549824275076e-05,-1.9847944088269287e-07,2.118737029377371e-06
2026-09-21 21:44:33.867159296,-2.1804028165206546e-06,2.367000706726685e-05,-6.782403033867013e-06,1.1753747457987629e-05
2026-09-21 21:44:33.868159232,4.6922485807954217e-07,2.230504651379306e-05,-7.665612429264002e-06,2.680779289221391e-06
2026-09-21 21:44:33.869159168,1.2721418443106813e-06,1.3232078345026821e-05,-5.256859367364086e-06,-3.1805182061361847e-06
2026-09-21 21:44:33.870159360,5.495164145941089e-07,2.63356832874706e-06,-8.869988050719257e-06,-4.2243109419359826e-06
2026-09-21 21:44:33.871159296,1.1918507425434655e-06,1.2686085710811312e-06,-1.60962463269243e-05,2.520195948818582e-06
2026-09-21 21:44:33.872159488,4.162644927419024e-06,-2.5853951228782535e-06,-1.5634391274943482e-06,3.4034051168418955e-06
2026-09-21 21:44:33.873159424,5.688187684427248e-06,-3.7094796425662935e-06,4.699316832557088e-06,5.81215772399446e-06
2026-09-21 21:44:33.874159360,8.177233212336432e-06,-6.840858077339362e-06,-9.211052542923426e-07,3.6442802411329467e-06
2026-09-21 21:44:33.875159552,6.892564215377206e-06,-5.877357125427807e-06,7.650210704923666e-07,3.00194642477436e-06
2026-09-21 21:44:33.876159488,2.3962263639987214e-06,-3.227729393984191e-06,8.553321094950661e-06,3.115159685762592e-08
2026-09-21 21:44:33.877159424,4.162644927419024e-06,-8.848151992424391e-06,2.4210214178310707e-05,-1.4943916539778002e-06
2026-09-21 21:44:33.878159616,7.856066076783463e-06,-1.3906532331020571e-05,1.7947455489775166e-05,-4.946936769556487e-06
2026-09-21 21:44:33.879159552,4.403520051710075e-06,-1.0614569873723667e-05,-6.782403033867013e-06,-3.662268909465638e-06
2026-09-21 21:44:33.880159488,-2.5015699520736234e-06,-9.891944500850514e-06,-1.0154656592931133e-05,-2.6184759462921647e-06
2026-09-21 21:44:33.881159680,-5.55265660295845e-06,-1.8884620658354834e-05,-1.8043147065327503e-06,3.4836969007301377e-06
2026-09-21 21:44:33.882159616,-1.1654828995233402e-05,-2.538825174269732e-05,-4.855400675296551e-06,-9.323493372903613e-07
2026-09-21 21:44:33.883159808,-2.313654840691015e-05,-1.7198493878822774e-05,-1.3125451005180366e-05,-1.7352670056425268e-06
2026-09-21 21:44:33.884159744,-1.5348250599345192e-05,-5.475898433360271e-06,-1.5614494259352796e-05,-1.0126411780220224e-06
2026-09-21 21:44:33.885159680,-8.282576345663983e-06,8.655450074002147e-06,-4.132775302423397e-06,-3.703071058680507e-07
2026-09-21 21:44:33.886159872,7.903915388851601e-07,1.4275872672442347e-05,6.305152510321932e-06,1.3961113154437044e-06
2026-09-21 21:44:33.887159808,1.1388901839382015e-05,1.2589745892910287e-05,4.458441708266037e-06,-1.2535163023130735e-06
2026-09-21 21:44:33.888159744,7.213731350930175e-06,1.4115288649918512e-05,6.144568487798097e-06,-3.7425604659802048e-06
2026-09-21 21:44:33.889159936,3.359727770657628e-06,1.2750328096444719e-05,-1.6437311387562659e-06,-2.4578923785156803e-06
2026-09-21 21:44:33.890159872,4.483812062971992e-06,6.246697012102231e-06,-2.787714379337558e-07,-1.2535163023130735e-06
2026-09-21 21:44:33.891159808,-8.154432293849823e-07,2.7941514417761937e-06,1.0058970474347007e-06,1.2355278613540577e-06
2026-09-21 21:44:33.892160000,1.4805773673742806e-07,1.7503588196632336e-06,-1.1818742251534786e-07,2.720269378642115e-07
2026-09-21 21:44:33.893159936,2.797685510813608e-06,-1.1401440360714332e-06,5.181067990633892e-06,-1.7352670056425268e-06
2026-09-21 21:44:33.894160128,5.206437435845146e-06,-2.5693461225273495e-07,1.1925574654014781e-05,-1.4943916539778002e-06
2026-09-21 21:44:33.895160064,4.483812062971992e-06,3.7576528484351e-06,1.1042366168112494e-05,1.2355278613540577e-06
2026-09-21 21:44:33.896160000,3.841477791866055e-06,-4.271522357157664e-06,-1.0013968676503282e-06,-1.2535163023130735e-06
2026-09-21 21:44:33.897160192,2.0750592284457525e-06,-1.816199437598698e-05,-1.6577996575506404e-05,-9.323493372903613e-07
2026-09-21 21:44:33.898160128,3.600602894948679e-06,-8.687567969900556e-06,-6.140068762761075e-06,-2.9396430818451336e-06
2026-09-21 21:44:33.899160064,2.15535123970767e-06,-7.001441645115847e-06,1.0962074156850576e-05,-3.7425604659802048e-06
2026-09-21 21:44:33.900160256,-2.7424450763646746e-06,-2.3445199985872023e-06,1.3210243196226656e-05,-5.428687018138589e-06
2026-09-21 21:44:33.901160192,-1.1333661859680433e-05,4.721153345599305e-06,2.7723149287339766e-06,-8.720649020688143e-06
2026-09-21 21:44:33.902160128,-1.7194959582411684e-05,-1.78247785243002e-06,9.256050930162019e-07,-2.217017254224629e-06
2026-09-21 21:44:33.903160320,-1.8238752090837806e-05,-5.23502330906922e-06,-7.605216865158582e-07,1.1031121175619774e-05
2026-09-21 21:44:33.904160256,-1.1494245882204268e-05,6.423206855288299e-08,-2.2860649551148526e-06,9.18441128305858e-06
2026-09-21 21:44:33.905160192,-1.778944124453119e-06,2.954735464300029e-06,4.779608843819005e-06,5.931938744652143e-07
2026-09-21 21:44:33.906160384,2.0750592284457525e-06,-6.760566520824796e-06,6.064276476536179e-06,-9.323493372903613e-07
2026-09-21 21:44:33.907160320,3.1991437481337925e-06,-1.0614569873723667e-05,-2.1254813873383682e-06,-2.297309265486547e-06
2026-09-21 21:44:33.908160512,8.4983994383947e-06,-7.162025212892331e-06,-7.4247368502255995e-06,-3.5819768982037203e-06
2026-09-21 21:44:33.909160448,1.3315904652699828e-05,-4.030646778119262e-06,-6.802296752539405e-07,-1.2943173999246937e-07
2026-09-21 21:44:33.910160384,7.133439339668257e-06,-3.0671458262077067e-06,7.268653916980838e-06,-1.1732245184248313e-06
2026-09-21 21:44:33.911160576,7.93635717855068e-06,-3.9503552216046955e-06,6.224860499060014e-06,3.6442802411329467e-06
2026-09-21 21:44:33.912160512,1.154948586190585e-05,4.88173736812314e-06,-2.526940079405904e-06,6.293908427323913e-06
2026-09-21 21:44:33.913160448,1.6736009911255678e-06,6.00582188781118e-06,-5.979485194984591e-06,-2.538184389777598e-06
2026-09-21 21:44:33.914160640,-1.11730787466513e-05,9.137200322584249e-06,-6.802296752539405e-07,9.143608963313454e-07
2026-09-21 21:44:33.915160576,-6.0344068515405525e-06,8.173699825420044e-06,6.064276476536179e-06,-1.2943173999246937e-07
2026-09-21 21:44:33.916160512,-1.3822706932842266e-05,1.4356162864714861e-05,5.181067990633892e-06,8.340691124431032e-07
2026-09-21 21:44:33.917160704,-2.0888381186523475e-05,1.3553246390074492e-05,-4.3935455096288933e-07,5.25011546415044e-06
2026-09-21 21:44:33.918160640,-1.7034377378877252e-05,9.940116797224618e-06,-1.1619804354268126e-06,-1.976142129933578e-06
2026-09-21 21:44:33.919160832,-1.11730787466513e-05,6.423206855288299e-08,4.779608843819005e-06,9.143608963313454e-07
2026-09-21 21:44:33.920160768,-1.5380690001620678e-06,-9.811652489588596e-06,7.188361905718921e-06,5.330407020665007e-06
2026-09-21 21:44:33.921160704,-1.061103648680728e-05,-3.308020950498758e-06,6.4657356233510654e-06,-3.5016853416891536e-06
2026-09-21 21:44:33.922160896,-7.1584913712285925e-06,1.4452407981480064e-07,-3.4101494748028927e-06,-4.625769634003518e-06
2026-09-21 21:44:33.923160832,2.2834929325199482e-07,7.531364644819405e-06,-2.476775443938095e-05,-3.5819768982037203e-06
2026-09-21 21:44:33.924160768,6.972856226639124e-06,-1.220435592586e-06,-3.329857918288326e-06,-4.5454776227416005e-06
2026-09-21 21:44:33.925160960,1.1388901839382015e-05,-2.3445199985872023e-06,-5.999385734867246e-07,1.6369865534215933e-06
2026-09-21 21:44:33.926160896,1.0585985364741646e-05,-3.3883129617606755e-06,6.947485871933168e-06,2.43990416493034e-06
2026-09-21 21:44:33.927160832,1.5644365703337826e-05,-1.4067115444049705e-05,4.699316832557088e-06,-4.144018930674065e-06
2026-09-21 21:44:33.928161024,2.0220995793351904e-05,-1.5432075088028796e-05,-1.5634391274943482e-06,2.038445245489129e-06
2026-09-21 21:44:33.929160960,2.0783038053195924e-05,-1.671674363024067e-05,-7.183861725934548e-06,1.2355278613540577e-06
2026-09-21 21:44:33.930161152,1.3717362890020013e-05,-1.3264198059914634e-05,-2.0451898308238015e-06,5.129022042638098e-07
2026-09-21 21:44:33.931161088,4.885270300292177e-06,-5.716773557651322e-06,5.743110250477912e-06,-2.9396430818451336e-06
2026-09-21 21:44:33.932161024,3.921769803127972e-06,-4.1751818002921937e-07,-8.408136977777758e-07,3.00194642477436e-06
2026-09-21 21:44:33.933161216,3.038560635104659e-06,5.459831982079777e-07,3.3343571885779966e-06,2.1990288132656133e-06
2026-09-21 21:44:33.934161152,-2.58186150858819e-06,3.19561058859108e-06,2.049689555860823e-06,-2.859351525330567e-06
2026-09-21 21:44:33.935161088,1.0312667200196302e-06,7.210198418761138e-06,3.173774075548863e-06,-3.5016853416891536e-06
2026-09-21 21:44:33.936161280,-8.957352406468999e-07,2.151818080164958e-06,4.239568696107199e-08,-5.308906452228257e-07
2026-09-21 21:44:33.937161216,2.0750592284457525e-06,-7.724067472736351e-06,1.0058970474347007e-06,-2.0564336864481447e-06
2026-09-21 21:44:33.938161152,3.600602894948679e-06,-2.9081671527819708e-05,-5.1765678108495194e-06,4.326103919538582e-07
2026-09-21 21:44:33.939161344,4.082352916157106e-06,-2.603058601380326e-05,-5.979485194984591e-06,8.340691124431032e-07
2026-09-21 21:44:33.940161280,1.914476115416619e-06,-1.2140113540226594e-05,-2.3663569663767703e-06,1.2355278613540577e-06
2026-09-21 21:44:33.941161472,4.724687187263044e-06,5.524071639229078e-06,-4.2933588701998815e-06,1.5566948832201888e-06
2026-09-21 21:44:33.942161408,2.9582686238427414e-06,7.772239769110456e-06,4.699316832557088e-06,2.520195948818582e-06
2026-09-21 21:44:33.943161344,-2.100111260006088e-06,1.4034996638656594e-05,-1.8043147065327503e-06,3.3231133329536533e-06
2026-09-21 21:44:33.944161536,-7.1584913712285925e-06,1.588170744071249e-05,1.6482304090459365e-06,4.68807320430642e-06
2026-09-21 21:44:33.945161472,-6.516157554870006e-06,2.1020377971581183e-05,-5.7386100706935395e-06,9.946526233761688e-07
2026-09-21 21:44:33.946161408,-8.282576345663983e-06,1.636345768929459e-05,-1.2483116734074429e-05,-7.1148133429232985e-06
2026-09-21 21:44:33.947161600,-1.197599613078637e-05,1.772841642377898e-05,-1.5132744920265395e-05,-5.99072973272996e-06
2026-09-21 21:44:33.948161536,-1.5428540791617706e-05,1.9013084965990856e-05,-7.906487553555053e-06,7.899742740846705e-06
2026-09-21 21:44:33.949161472,-1.141395387094235e-05,1.556053939566482e-05,8.453130817542842e-07,6.053032848285511e-06
2026-09-21 21:44:33.950161664,-7.720534085819963e-06,1.0261284842272289e-05,6.706610747642117e-06,7.739159627817571e-06
2026-09-21 21:44:33.951161600,-6.275281975831604e-06,1.3151788152754307e-05,7.750404620310292e-06,6.2136164160619956e-06
2026-09-21 21:44:33.952161792,-2.2606948277825722e-06,1.0502159057068639e-05,2.932898951257812e-06,7.578576060041087e-06
2026-09-21 21:44:33.953161728,5.848771706951084e-06,6.4875721363932826e-06,3.816107437160099e-06,1.0749442935775733e-06
2026-09-21 21:44:33.954161664,4.724687187263044e-06,8.655450074002147e-06,7.83069663157221e-06,-2.3776008220011136e-06
2026-09-21 21:44:33.955161856,-2.662153519850108e-06,6.728447260684334e-06,8.553321094950661e-06,-3.421393785174587e-06
2026-09-21 21:44:33.956161792,2.15535123970767e-06,4.962029379385058e-06,1.7144539015134797e-05,-5.308906452228257e-07
2026-09-21 21:44:33.957161728,-4.942765485793643e-07,6.423206855288299e-08,1.3691993444808759e-05,2.118737029377371e-06
2026-09-21 21:44:33.958161920,-2.903028644141159e-06,7.065663112371112e-07,8.39273889141623e-06,1.3158196452422999e-06
2026-09-21 21:44:33.959161856,7.100999823705934e-07,-2.2642284420726355e-06,-6.140068762761075e-06,-3.7425604659802048e-06
2026-09-21 21:44:33.960161792,2.6371014882897725e-06,-8.205817721318454e-06,-1.2402824722812511e-05,-3.100226649621618e-06
2026-09-21 21:44:33.961161984,4.403520051710075e-06,-1.3826240319758654e-05,-1.0556114830251317e-05,-1.3338080862013157e-06
2026-09-21 21:44:33.962161920,1.1469193850643933e-05,-1.7439369912608527e-05,1.487647296016803e-06,3.56398868461838e-06
2026-09-21 21:44:33.963162112,6.651689091086155e-06,-1.2862738913099747e-05,-3.789632430084566e-08,2.720269378642115e-07
2026-09-21 21:44:33.964162048,5.768479695689166e-06,-1.1096321031800471e-05,-1.4028555597178638e-06,-6.311895958788227e-06
2026-09-21 21:44:33.965161984,8.177233212336432e-06,-8.446692845609505e-06,2.4511477931810077e-06,-5.428687018138589e-06
2026-09-21 21:44:33.966162176,3.1188526463665767e-06,-1.59138253366109e-05,5.9036933635070454e-06,-6.231604857021011e-06
2026-09-21 21:44:33.967162112,-1.457777443647501e-06,-3.189188282703981e-05,-1.4831475709797814e-06,-1.715128200885374e-05
2026-09-21 21:44:33.968162048,-9.246076842828188e-06,-2.9643713787663728e-05,-2.446648522891337e-06,-6.231604857021011e-06
2026-09-21 21:44:33.969162240,-1.454533230571542e-05,-1.92057868844131e-05,1.9693975445989054e-06,-2.0564336864481447e-06
2026-09-21 21:44:33.970162176,-1.1654828995233402e-05,5.524071639229078e-06,7.5898201430391055e-06,-7.717657695138769e-07
2026-09-21 21:44:33.971162112,-5.4723645916965324e-06,1.5640831406926736e-05,6.86719386067125e-06,3.52318608065616e-07
2026-09-21 21:44:33.972162304,1.7538930023874855e-06,1.869191873993259e-05,1.0159155863220803e-05,-6.914739856256347e-07
2026-09-21 21:44:33.973162240,-1.1366103080945322e-06,2.142183802789077e-05,1.1664801604638342e-06,2.1990288132656133e-06
2026-09-21 21:44:33.974162176,6.812272204115288e-06,2.39108812820632e-05,2.4511477931810077e-06,6.615075108129531e-06
2026-09-21 21:44:33.975162368,1.211152812174987e-05,1.7086082152673043e-05,3.5752323128690477e-06,5.81215772399446e-06
2026-09-21 21:44:33.976162304,1.3075028618914075e-05,2.4729852157179266e-06,4.438548444340995e-07,3.6442802411329467e-06
2026-09-21 21:44:33.977162496,1.5724657714599743e-05,6.262742999751936e-07,-5.19646562224807e-07,3.00194642477436e-06
2026-09-21 21:44:33.978162432,1.3315904652699828e-05,2.3124011931940913e-06,2.1299815671227407e-06,4.768364760820987e-06
2026-09-21 21:44:33.979162368,1.1148027624585666e-05,7.868583224990289e-07,2.932898951257812e-06,-1.2943173999246937e-07
2026-09-21 21:44:33.980162560,6.571397079824237e-06,2.151818080164958e-06,5.100775979371974e-06,-7.3556893767090514e-06
2026-09-21 21:44:33.981162496,-1.2525837256305294e-08,8.655450074002147e-06,4.458441708266037e-06,-1.4100196494837292e-05
2026-09-21 21:44:33.982162432,-5.392073035181966e-06,1.5159081158344634e-05,-4.534233994490933e-06,-1.1611151421675459e-05
2026-09-21 21:44:33.983162624,-9.808119102672208e-06,1.1706535588018596e-05,-1.1760491361201275e-05,-8.961524144979194e-06
2026-09-21 21:44:33.984162560,-1.8640212147147395e-05,1.2750328096444719e-05,-5.256859367364086e-06,-1.7352670056425268e-06
2026-09-21 21:44:33.985162496,-1.2778913514921442e-05,9.8598247859627e-06,6.04437957463233e-07,1.1552360774658155e-06
2026-09-21 21:44:33.986162688,-9.647535989643075e-06,1.4275872672442347e-05,1.6482304090459365e-06,9.104119271796662e-06
2026-09-21 21:44:33.987162624,-8.684034582984168e-06,7.0496143962373026e-06,6.847299687251507e-07,1.2235497706569731e-05
2026-09-21 21:44:33.988162816,-7.80082518758718e-06,2.2321091819321737e-06,1.5679393072787207e-06,1.1271996299910825e-05
2026-09-21 21:44:33.989162752,-2.1804028165206546e-06,-3.9503552216046955e-06,7.188361905718921e-06,1.0388787814008538e-05
2026-09-21 21:44:33.990162688,4.403520051710075e-06,-1.4388282579602674e-05,-8.408136977777758e-07,4.768364760820987e-06
2026-09-21 21:44:33.991162880,3.5203108836867614e-06,-1.5416027281389688e-06,-6.140068762761075e-06,2.600487505333149e-06
2026-09-21 21:44:33.992162816,2.71739349955169e-06,3.5970697354059666e-06,-1.0957573977066204e-05,-7.275397365447134e-06
2026-09-21 21:44:33.993162752,-5.311781023920048e-06,-1.0598520248095156e-06,-3.008690782735357e-06,-1.4341070709633641e-05
2026-09-21 21:44:33.994162944,-4.267988515493926e-06,-5.23502330906922e-06,-4.0524832911614794e-06,-2.6063666155096143e-05
2026-09-21 21:44:33.995162880,-5.231489467405481e-06,-1.3810191603624844e-06,-1.1619804354268126e-06,-2.453812339808792e-05
2026-09-21 21:44:33.996162816,-8.154432293849823e-07,-2.5693461225273495e-07,3.2540660868107807e-06,-1.4662238754681312e-05
2026-09-21 21:44:33.997163008,3.1991437481337925e-06,-3.3883129617606755e-06,-3.972191734646913e-06,4.848656772082904e-06
2026-09-21 21:44:33.998162944,3.921769803127972e-06,-4.351813913672231e-06,-8.789696948952042e-06,1.873912879091222e-05
2026-09-21 21:44:33.999163136,8.4983994383947e-06,-7.001441645115847e-06,9.256050930162019e-07,3.134493454126641e-05
2026-09-21 21:44:34.000163072,1.1469193850643933e-05,-1.1016029020538554e-05,-3.590625397009717e-07,2.909676550189033e-05
2026-09-21 21:44:34.001163008,5.527604571398115e-06,-1.4629157703893725e-05,5.502234216692159e-06,2.7009178666048683e-05
2026-09-21 21:44:34.002163200,1.5130178780964343e-06,-1.6556159607716836e-05,4.458441708266037e-06,1.753475225996226e-05
2026-09-21 21:44:34.003163136,-6.548596616084978e-07,-1.952695492946077e-05,5.421943114924943e-06,1.58486254804302e-05
2026-09-21 21:44:34.004163072,-3.946821379940957e-06,-1.141748816735344e-05,-7.605216865158582e-07,-1.414099870089558e-06
2026-09-21 21:44:34.005163264,2.6371014882897725e-06,-5.556189989874838e-06,-3.1692743505118415e-06,8.340691124431032e-07
2026-09-21 21:44:34.006163200,3.5203108836867614e-06,-2.5693461225273495e-07,-1.0013968676503282e-06,-1.2535163023130735e-06
2026-09-21 21:44:34.007163136,2.71739349955169e-06,7.065663112371112e-07,9.256050930162019e-07,-1.072794202627847e-05
2026-09-21 21:44:34.008163328,7.775774065521546e-06,5.122612492414191e-06,-2.0451898308238015e-06,-5.589270585915074e-06
2026-09-21 21:44:34.009163264,5.848771706951084e-06,1.108024548557296e-06,-5.19646562224807e-07,-9.323493372903613e-07
2026-09-21 21:44:34.010163456,5.286729447107064e-06,3.275902599852998e-06,1.9693975445989054e-06,6.133324859547429e-06
2026-09-21 21:44:34.011163392,-6.548596616084978e-07,5.202904503676109e-06,2.370856691413792e-06,-3.703071058680507e-07
2026-09-21 21:44:34.012163328,1.4805773673742806e-07,5.764946763520129e-06,3.5752323128690477e-06,-1.0968818060064223e-05
2026-09-21 21:44:34.013163520,-5.745681050939311e-07,3.1153185773291625e-06,4.619025730789872e-06,-1.2333777704043314e-05
2026-09-21 21:44:34.014163456,-1.216901864609099e-06,-4.351813913672231e-06,2.290564680151874e-06,-5.830145710206125e-06
2026-09-21 21:44:34.015163392,-6.548596616084978e-07,-1.220435592586e-06,6.7869018494093325e-06,-2.3776008220011136e-06
2026-09-21 21:44:34.016163584,-3.30448756358237e-06,5.524071639229078e-06,3.494941211101832e-06,-1.3338080862013157e-06
2026-09-21 21:44:34.017163520,-8.154432293849823e-07,-4.191230345895747e-06,-3.088982339249924e-06,-2.297309265486547e-06
2026-09-21 21:44:34.018163456,-4.1398453731744667e-07,-8.04523460828932e-06,1.0159155863220803e-05,-6.713355105603114e-06
2026-09-21 21:44:34.019163648,-1.6183605566766346e-06,2.5532763174851425e-06,8.312446880154312e-06,-2.6987679575540824e-06
2026-09-21 21:44:34.020163584,-7.078199814714026e-06,-7.322608780668816e-06,6.626318736380199e-06,-5.308906452228257e-07
2026-09-21 21:44:34.021163776,-7.881117198849097e-06,-3.4686045182752423e-06,5.100775979371974e-06,1.1144337719315445e-07
2026-09-21 21:44:34.022163712,-4.267988515493926e-06,4.721153345599305e-06,-4.775109118781984e-06,6.734856583534565e-07
2026-09-21 21:44:34.023163648,2.9582686238427414e-06,5.764946763520129e-06,-3.4904410313174594e-06,6.615075108129531e-06
2026-09-21 21:44:34.024163840,6.776571837008305e-08,2.8744434530381113e-06,-3.789632430084566e-08,4.206322500976967e-06
2026-09-21 21:44:34.025163776,-8.154432293849823e-07,3.7576528484351e-06,3.0934820642869454e-06,-2.3776008220011136e-06
2026-09-21 21:44:34.026163712,-6.435865543608088e-06,2.954735464300029e-06,-9.512322321825195e-06,2.038445245489129e-06
2026-09-21 21:44:34.027163904,-2.8227370876265923e-06,-2.103644874296151e-06,-7.826195542293135e-06,1.2355278613540577e-06
2026-09-21 21:44:34.028163840,1.7538930023874855e-06,-1.461311171624402e-06,-6.3006523305375595e-06,-2.3776008220011136e-06
2026-09-21 21:44:34.029163776,4.724687187263044e-06,1.5094836953721824e-06,-2.1254813873383682e-06,-3.0199346383597003e-06
2026-09-21 21:44:34.030163968,2.0750592284457525e-06,3.0350274755619466e-06,-8.408136977777758e-07,5.972741291770944e-06
2026-09-21 21:44:34.031163904,-4.1398453731744667e-07,5.524071639229078e-06,2.832708219102642e-07,4.68807320430642e-06
2026-09-21 21:44:34.032164096,1.7538930023874855e-06,8.575158062740229e-06,9.918281648424454e-06,-8.238897862611338e-06
2026-09-21 21:44:34.033164032,-1.216901864609099e-06,1.1626243576756679e-05,2.1640877093886957e-05,-7.757147614029236e-06
2026-09-21 21:44:34.034163968,-2.4212783955590567e-06,1.531966518086847e-05,5.9036933635070454e-06,-9.443274393561296e-06
2026-09-21 21:44:34.035164160,-4.187696958979359e-06,1.2830620107706636e-05,-5.015984243073035e-06,-1.0968818060064223e-05
2026-09-21 21:44:34.036164096,-7.23878338249051e-06,1.1545951565494761e-05,2.049689555860823e-06,-1.0929329619102646e-06
2026-09-21 21:44:34.037164032,-6.0344068515405525e-06,1.3553246390074492e-05,8.553321094950661e-06,1.91735168186824e-07
2026-09-21 21:44:34.038164224,-4.267988515493926e-06,8.093407814158127e-06,-9.110863175010309e-06,-3.2608102173981024e-06
2026-09-21 21:44:34.039164160,1.4805773673742806e-07,8.896324288798496e-06,-1.159990733867744e-05,-1.2943173999246937e-07
2026-09-21 21:44:34.040164096,3.1188526463665767e-06,3.837944859697018e-06,-9.351739208796062e-06,-1.0929329619102646e-06
2026-09-21 21:44:34.041164288,5.768479695689166e-06,-6.037940693204291e-06,-1.1439324225648306e-05,-3.7425604659802048e-06
2026-09-21 21:44:34.042164224,1.2721418443106813e-06,-1.8884620658354834e-05,-1.32860341182095e-05,-4.5454776227416005e-06
2026-09-21 21:44:34.043164160,6.651689091086155e-06,-1.3745948308496736e-05,-8.147362677846104e-06,-9.323493372903613e-07
2026-09-21 21:44:34.044164352,5.929063718213001e-06,-1.2220405551488511e-05,-9.672905434854329e-06,3.6442802411329467e-06
2026-09-21 21:44:34.045164288,1.352433855572599e-06,-1.928607889567502e-05,2.0297879643749184e-07,6.734856583534565e-07
2026-09-21 21:44:34.046164480,1.914476115416619e-06,-2.314008270332124e-05,1.7144539015134797e-05,-5.268103450362105e-06
2026-09-21 21:44:34.047164416,-2.9833204280294012e-06,-2.20159981836332e-05,1.0319739885744639e-05,-1.2535163023130735e-06
2026-09-21 21:44:34.048164352,-1.285920552618336e-05,-1.2380988664517645e-05,-4.2933588701998815e-06,-5.308906452228257e-07
2026-09-21 21:44:34.049164544,-1.9924878870369866e-05,-6.5839333274198e-07,1.3270632734929677e-06,1.1144337719315445e-07
2026-09-21 21:44:34.050164480,-1.8640212147147395e-05,3.998527972726151e-06,-3.590625397009717e-07,3.0822379812889267e-06
2026-09-21 21:44:34.051164416,-8.04170031187823e-06,-1.7664305573816819e-07,-5.015984243073035e-06,9.023827260534745e-06
2026-09-21 21:44:34.052164608,-6.67674112264649e-06,1.108024548557296e-06,-3.651024599093944e-06,8.220909876399674e-06
2026-09-21 21:44:34.053164544,-2.8227370876265923e-06,2.2321091819321737e-06,-2.3663569663767703e-06,7.49828450352652e-06
2026-09-21 21:44:34.054164480,6.298079711086757e-07,5.3634876167052425e-06,5.823401352245128e-06,1.5566948832201888e-06
2026-09-21 21:44:34.055164672,1.6736009911255678e-06,4.399987119541038e-06,4.779608843819005e-06,3.9654473766859155e-06
2026-09-21 21:44:34.056164608,6.491105978057021e-06,5.283195605443325e-06,7.670112609048374e-06,1.7975701211980777e-06
2026-09-21 21:44:34.057164800,1.0907151590799913e-05,7.691947757848538e-06,6.7869018494093325e-06,5.0895318963739555e-06
2026-09-21 21:44:34.058164736,1.3315904652699828e-05,5.524071639229078e-06,1.0801490134326741e-05,5.6515741562179755e-06
2026-09-21 21:44:34.059164672,1.69290342455497e-05,-4.351813913672231e-06,7.188361905718921e-06,-1.414099870089558e-06
2026-09-21 21:44:34.060164864,8.337816325365566e-06,-5.716773557651322e-06,1.1764990631490946e-05,-6.231604857021011e-06
2026-09-21 21:44:34.061164800,2.476518375260639e-06,1.1224785339436494e-05,1.2327032891334966e-05,-4.914018703061629e-08
2026-09-21 21:44:34.062164736,5.6078965826600324e-06,8.976616300060414e-06,4.217566583974985e-06,-2.4578923785156803e-06
2026-09-21 21:44:34.063164928,4.644395176001126e-06,2.713860340008978e-06,5.3416511036630254e-06,-2.900153219798085e-07
2026-09-21 21:44:34.064164864,-1.5380690001620678e-06,4.560570232570171e-06,1.0640906111802906e-05,-3.5819768982037203e-06
2026-09-21 21:44:34.065164800,-3.946821379940957e-06,2.8744434530381113e-06,1.1604408427956514e-05,-1.8155585621570935e-06
2026-09-21 21:44:34.066164992,-1.778944124453119e-06,1.0662743079592474e-05,-1.6437311387562659e-06,-3.341101773912669e-06
2026-09-21 21:44:34.067164928,1.5130178780964343e-06,1.772841642377898e-05,-1.4891868886479642e-05,-4.7863532017800026e-06
2026-09-21 21:44:34.068165120,4.483812062971992e-06,1.9013084965990856e-05,-6.3006523305375595e-06,-7.837439625291154e-06
2026-09-21 21:44:34.069165056,-3.6256544717616634e-06,1.7889000446302816e-05,-1.6437311387562659e-06,-5.027228326071054e-06
2026-09-21 21:44:34.070164992,-1.7310939881554077e-07,6.166405000840314e-06,-5.818901627208106e-06,-2.900153219798085e-07
2026-09-21 21:44:34.071165184,7.213731350930175e-06,1.5094836953721824e-06,-1.964897819561884e-06,4.286614512238884e-06
2026-09-21 21:44:34.072165120,-1.5380690001620678e-06,-2.665687134140171e-06,1.487647296016803e-06,7.257409379235469e-06
2026-09-21 21:44:34.073165056,-1.2136580153310206e-05,3.837944859697018e-06,4.619025730789872e-06,4.607781193044502e-06
2026-09-21 21:44:34.074165248,-7.961409210111015e-06,2.713860340008978e-06,9.436531399842352e-06,2.118737029377371e-06
2026-09-21 21:44:34.075165184,3.7611860079778126e-06,-2.5853951228782535e-06,-2.787714379337558e-07,-2.779059514068649e-06
2026-09-21 21:44:34.076165120,2.235643250969588e-06,-7.402900337183382e-06,-1.5634391274943482e-06,-1.0005316653405316e-05
2026-09-21 21:44:34.077165312,8.706835501470778e-07,-6.5196909417863935e-06,-2.6875236471823882e-06,-7.1148133429232985e-06
2026-09-21 21:44:34.078165248,4.724687187263044e-06,-7.322608780668816e-06,-3.7313166103558615e-06,2.600487505333149e-06
2026-09-21 21:44:34.079165440,-1.1366103080945322e-06,-3.7094796425662935e-06,-4.694817562267417e-06,-1.2535163023130735e-06
2026-09-21 21:44:34.080165376,-9.281739465905048e-08,2.2321091819321737e-06,3.2540660868107807e-06,4.607781193044502e-06
2026-09-21 21:44:34.081165312,2.797685510813608e-06,4.640862243832089e-06,4.297858595236903e-06,5.6515741562179755e-06
2026-09-21 21:44:34.082165504,1.914476115416619e-06,8.253990017692558e-06,-2.446648522891337e-06,-5.027228326071054e-06
2026-09-21 21:44:34.083165440,4.323228040448157e-06,1.0180992831010371e-05,-6.8626945903815795e-06,-9.202399269270245e-06
2026-09-21 21:44:34.084165376,1.0345109330955893e-05,1.2589745892910287e-05,-9.271447197534144e-06,1.8778619050863199e-06
2026-09-21 21:44:34.085165568,6.7319811023480725e-06,3.5970697354059666e-06,-7.585320418002084e-06,3.162529765177169e-06
2026-09-21 21:44:34.086165504,7.374314463959308e-06,-2.9065622584312223e-06,3.3343571885779966e-06,1.3761040463577956e-05
2026-09-21 21:44:34.087165440,9.140734618995339e-06,-4.030646778119262e-06,1.1122658179374412e-05,9.585869520378765e-06
2026-09-21 21:44:34.088165632,5.447312560136197e-06,-7.162025212892331e-06,6.947485871933168e-06,-2.1367256977100624e-06
2026-09-21 21:44:34.089165568,6.892564215377206e-06,-4.271522357157664e-06,8.232154868892394e-06,-3.662268909465638e-06
2026-09-21 21:44:34.090165760,6.491105978057021e-06,-1.3986823432787787e-05,7.108069894457003e-06,3.4034051168418955e-06
2026-09-21 21:44:34.091165696,5.286729447107064e-06,-3.09283823298756e-05,1.8088144315697718e-06,7.257409379235469e-06
2026-09-21 21:44:34.092165632,2.797685510813608e-06,-3.7753183278255165e-05,6.626318736380199e-06,3.804863808909431e-06
2026-09-21 21:44:34.093165824,3.1188526463665767e-06,-1.8884620658354834e-05,5.743110250477912e-06,-1.4943916539778002e-06
2026-09-21 21:44:34.094165760,5.12614633407793e-06,-1.1337196156091522e-05,-6.3006523305375595e-06,-5.308906452228257e-07
2026-09-21 21:44:34.095165696,3.7611860079778126e-06,-9.089027116715442e-06,-4.6145255510054994e-06,-1.414099870089558e-06
2026-09-21 21:44:34.096165888,5.447312560136197e-06,1.3489005823430489e-06,-9.271447197534144e-06,-3.822852249868447e-06
2026-09-21 21:44:34.097165824,2.15535123970767e-06,6.969322384975385e-06,-1.633712054172065e-05,-1.6549749943806091e-06
2026-09-21 21:44:34.098165760,2.6371014882897725e-06,1.8306508309251512e-06,4.239568696107199e-08,2.9216546408861177e-06
2026-09-21 21:44:34.099165952,-2.2606948277825722e-06,3.0510719284393417e-07,1.4073552847548854e-06,5.892449280509027e-06
2026-09-21 21:44:34.100165888,-1.6183605566766346e-06,1.670066808401316e-06,7.910986823844723e-06,4.366906068753451e-06
2026-09-21 21:44:34.101166080,1.4805773673742806e-07,3.853992041058518e-07,2.049689555860823e-06,-1.2943173999246937e-07
2026-09-21 21:44:34.102166016,-5.793531727249501e-06,3.837944859697018e-06,-3.2495659070264082e-06,1.6369865534215933e-06
2026-09-21 21:44:34.103165952,-1.141395387094235e-05,-1.461311171624402e-06,-3.590625397009717e-07,-4.304602498450549e-06
2026-09-21 21:44:34.104166144,-1.5027082554297522e-05,-6.278815817495342e-06,-1.2422724466887303e-06,-1.474253076594323e-05
2026-09-21 21:44:34.105166080,-1.310008065047441e-05,5.202904503676109e-06,-5.256859367364086e-06,-1.0567358913249336e-05
2026-09-21 21:44:34.106166016,-4.107404947717441e-06,1.612258165550884e-05,-1.32860341182095e-05,1.1552360774658155e-06
2026-09-21 21:44:34.107166208,-2.5340096954096225e-07,2.029775350820273e-05,6.04437957463233e-07,5.81215772399446e-06
2026-09-21 21:44:34.108166144,3.1991437481337925e-06,1.3794120604870841e-05,6.224860499060014e-06,1.6369865534215933e-06
2026-09-21 21:44:34.109166080,6.330521955533186e-06,1.4918205124558881e-05,1.0861881492019165e-06,2.9216546408861177e-06
2026-09-21 21:44:34.110166272,3.4400197819195455e-06,1.804958446882665e-05,-4.3935455096288933e-07,-2.9396430818451336e-06
2026-09-21 21:44:34.111166208,4.323228040448157e-06,1.7086082152673043e-05,3.735816335392883e-06,-1.8958505734190112e-06
2026-09-21 21:44:34.112166144,1.914476115416619e-06,1.973571124835871e-05,7.5898201430391055e-06,-9.323493372903613e-07
2026-09-21 21:44:34.113166336,-7.559950063296128e-06,1.2509453881648369e-05,1.3451117411023006e-05,1.7172783373098355e-06
2026-09-21 21:44:34.114166272,-6.275281975831604e-06,5.764946763520129e-06,8.151862857630476e-06,9.143608963313454e-07
2026-09-21 21:44:34.115166464,-7.399366495519644e-06,8.414574040216394e-06,1.1042366168112494e-05,1.6369865534215933e-06
2026-09-21 21:44:34.116166400,-4.267988515493926e-06,9.217492333846167e-06,6.626318736380199e-06,-2.900153219798085e-07
2026-09-21 21:44:34.117166336,-3.30448756358237e-06,9.940116797224618e-06,4.217566583974985e-06,-4.465186066227034e-06
2026-09-21 21:44:34.118166528,-4.187696958979359e-06,1.3489005823430489e-06,2.049689555860823e-06,-8.158606760844123e-06
2026-09-21 21:44:34.119166464,-9.808119102672208e-06,-4.5123974814487156e-06,-3.891900178132346e-06,-6.914739856256347e-07
2026-09-21 21:44:34.120166400,-1.0530744475545362e-05,-1.623499338165857e-05,-7.906487553555053e-06,2.43990416493034e-06
2026-09-21 21:44:34.121166592,-3.30448756358237e-06,-1.4709449715155642e-05,-4.2933588701998815e-06,1.4764030993319466e-06
2026-09-21 21:44:34.122166528,-2.340986384297139e-06,-1.3344490071176551e-05,4.297858595236903e-06,5.931938744652143e-07
2026-09-21 21:44:34.123166464,3.0864129030305776e-07,-2.241745823994279e-05,5.421943114924943e-06,4.607781193044502e-06
2026-09-21 21:44:34.124166656,1.1115587312815478e-06,-1.896491266961675e-05,1.2268769467027596e-07,2.43990416493034e-06
2026-09-21 21:44:34.125166592,3.27943575939571e-06,-2.209629019489512e-05,-2.767815658444306e-06,8.381492989428807e-06
2026-09-21 21:44:34.126166784,2.6371014882897725e-06,-1.3344490071176551e-05,-1.1818742251534786e-07,4.366906068753451e-06
2026-09-21 21:44:34.127166720,-3.336929808028799e-07,-9.891944500850514e-06,3.8963994484220166e-06,-6.914739856256347e-07
2026-09-21 21:44:34.128166656,1.1918507425434655e-06,-1.727878589008469e-05,1.7285224203078542e-06,-2.6184759462921647e-06
2026-09-21 21:44:34.129166848,1.6736009911255678e-06,-1.0534278771956451e-05,6.305152510321932e-06,-8.520575534021191e-07
2026-09-21 21:44:34.130166784,-4.107404947717441e-06,-4.351813913672231e-06,2.1299815671227407e-06,-5.749853698944207e-06
2026-09-21 21:44:34.131166720,-6.516157554870006e-06,-3.372266235146526e-07,5.823401352245128e-06,-5.1075198825856205e-06
2026-09-21 21:44:34.132166912,-8.684034582984168e-06,4.721153345599305e-06,6.305152510321932e-06,3.885155365423998e-06
2026-09-21 21:44:34.133166848,-1.5910292859189212e-05,-3.870063210342778e-06,7.5898201430391055e-06,3.115159685762592e-08
2026-09-21 21:44:34.134166784,-2.466209298290778e-05,4.31969510827912e-06,7.991278835106641e-06,-1.0929329619102646e-06
2026-09-21 21:44:34.135166976,-1.7596419638721272e-05,7.12990640749922e-06,-1.9847944088269287e-07,7.3377009357500356e-06
2026-09-21 21:44:34.136166912,-1.173512100649532e-05,1.2429161870386451e-05,-3.4904410313174594e-06,4.206322500976967e-06
2026-09-21 21:44:34.137167104,-1.2525837256305294e-08,1.3392662367550656e-05,-7.505028406740166e-06,1.3158196452422999e-06
2026-09-21 21:44:34.138167040,4.644395176001126e-06,1.604228964424692e-05,-1.5614494259352796e-05,4.326103919538582e-07
2026-09-21 21:44:34.139166976,6.009354819980217e-06,1.3633538401336409e-05,-7.4247368502255995e-06,2.8413628569978755e-06
2026-09-21 21:44:34.140167168,4.724687187263044e-06,1.4356162864714861e-05,2.2102726688899565e-06,5.009240339859389e-06
2026-09-21 21:44:34.141167104,1.2721418443106813e-06,1.1064201316912659e-05,-1.6437311387562659e-06,5.6515741562179755e-06
2026-09-21 21:44:34.142167040,2.2834929325199482e-07,2.07152606890304e-06,-2.767815658444306e-06,5.0895318963739555e-06
2026-09-21 21:44:34.143167232,-6.516157554870006e-06,7.868583224990289e-07,-1.7240226952708326e-06,1.3961113154437044e-06
2026-09-21 21:44:34.144167168,-3.86652982342639e-06,-5.0744397412927356e-06,1.1664801604638342e-06,-6.071020834497176e-06
2026-09-21 21:44:34.145167104,-9.48695196711924e-06,-4.030646778119262e-06,-1.4831475709797814e-06,-7.1148133429232985e-06
2026-09-21 21:44:34.146167296,-5.873823283764068e-06,-1.1401440360714332e-06,-3.891900178132346e-06,-2.297309265486547e-06
2026-09-21 21:44:34.147167232,2.71739349955169e-06,5.042320481152274e-06,-3.1692743505118415e-06,-4.946936769556487e-06
2026-09-21 21:44:34.148167424,-1.0209578249487095e-05,1.0662743079592474e-05,5.421943114924943e-06,-5.749853698944207e-06
2026-09-21 21:44:34.149167360,-1.1895704119524453e-05,1.1883165598192136e-06,1.9693975445989054e-06,2.2793205971538555e-06
2026-09-21 21:44:34.150167296,-9.760267403180478e-07,5.042320481152274e-06,-1.1619804354268126e-06,1.2355278613540577e-06
2026-09-21 21:44:34.151167488,8.899858585209586e-06,3.918235961464234e-06,-2.1254813873383682e-06,-3.5819768982037203e-06
2026-09-21 21:44:34.152167424,1.0184527127421461e-05,7.0496143962373026e-06,5.241459462013154e-07,-2.6987679575540824e-06
2026-09-21 21:44:34.153167360,1.3637070878758095e-05,3.0510719284393417e-07,4.538733719527954e-06,-2.900153219798085e-07
2026-09-21 21:44:34.154167552,1.6768450223025866e-05,-4.11093878938118e-06,-2.0451898308238015e-06,4.326103919538582e-07
2026-09-21 21:44:34.155167488,1.3877946912543848e-05,-1.615470137039665e-05,-1.3526909242500551e-05,1.0749442935775733e-06
2026-09-21 21:44:34.156167424,1.829399298003409e-05,-2.4745917471591383e-05,-2.6072320906678215e-06,2.8413628569978755e-06
2026-09-21 21:44:34.157167616,1.4279405149864033e-05,-1.3826240319758654e-05,4.458441708266037e-06,4.366906068753451e-06
2026-09-21 21:44:34.158167552,1.3556780686485581e-05,-1.5191199963737745e-05,6.04437957463233e-07,-2.1367256977100624e-06
2026-09-21 21:44:34.159167744,1.1629777873167768e-05,-8.687567969900556e-06,-5.19646562224807e-07,-1.2535163023130735e-06
2026-09-21 21:44:34.160167680,7.454606475221226e-06,-4.978097649654956e-07,4.779608843819005e-06,2.7610710731096333e-06
2026-09-21 21:44:34.161167616,6.972856226639124e-06,4.8014453568612225e-06,3.816107437160099e-06,3.4836969007301377e-06
2026-09-21 21:44:34.162167808,1.5130178780964343e-06,5.764946763520129e-06,2.932898951257812e-06,2.8413628569978755e-06
2026-09-21 21:44:34.163167744,-6.548596616084978e-07,-5.716773557651322e-06,3.735816335392883e-06,-1.3338080862013157e-06
2026-09-21 21:44:34.164167680,-1.2525837256305294e-08,-1.6636451618978754e-05,8.794197128736414e-06,4.607781193044502e-06
2026-09-21 21:44:34.165167872,-2.9833204280294012e-06,-2.370212496316526e-05,8.151862857630476e-06,5.410699031926924e-06
2026-09-21 21:44:34.166167808,-1.004899422696326e-05,-2.4986793505377136e-05,-8.408136977777758e-07,-1.1732245184248313e-06
2026-09-21 21:44:34.167167744,-1.2939497537445277e-05,-2.3862708985689096e-05,-1.7782373106456362e-05,-2.0564336864481447e-06
2026-09-21 21:44:34.168167936,-1.735554360493552e-05,-1.2140113540226594e-05,-6.3006523305375595e-06,-4.465186066227034e-06
2026-09-21 21:44:34.169167872,-1.4946790543035604e-05,-1.0614569873723667e-05,4.137274572713068e-06,2.118737029377371e-06
2026-09-21 21:44:34.170168064,-1.1333661859680433e-05,-6.439399385271827e-06,2.290564680151874e-06,3.00194642477436e-06
2026-09-21 21:44:34.171168000,-8.04170031187823e-06,-5.154731297807302e-06,7.42923612051527e-06,-4.2243109419359826e-06
2026-09-21 21:44:34.172167936,-3.86652982342639e-06,1.0180992831010371e-05,2.7723149287339766e-06,-7.1148133429232985e-06
2026-09-21 21:44:34.173168128,3.1991437481337925e-06,1.2268577847862616e-05,1.4073552847548854e-06,-7.998022738320287e-06
2026-09-21 21:44:34.174168064,9.943651093635708e-06,6.648156158917118e-06,5.261359092401108e-06,-7.195105354185216e-06
2026-09-21 21:44:34.175168000,1.2593278370331973e-05,1.1786827599280514e-05,1.8088144315697718e-06,-6.111824291110679e-07
2026-09-21 21:44:34.176168192,6.972856226639124e-06,1.644374970055651e-05,7.650210704923666e-07,-1.4943916539778002e-06
2026-09-21 21:44:34.177168128,1.914476115416619e-06,1.78087084350409e-05,1.7285224203078542e-06,9.143608963313454e-07
2026-09-21 21:44:34.178168064,2.5568103865225567e-06,2.166271224268712e-05,4.378149697004119e-06,1.6369865534215933e-06
2026-09-21 21:44:34.179168256,-4.1398453731744667e-07,2.278679676237516e-05,3.5752323128690477e-06,2.2793205971538555e-06
2026-09-21 21:44:34.180168192,4.483812062971992e-06,3.0173636332619935e-05,1.4073552847548854e-06,1.7172783373098355e-06
2026-09-21 21:44:34.181168128,5.12614633407793e-06,3.3064141462091357e-05,-3.1692743505118415e-06,1.2355278613540577e-06
2026-09-21 21:44:34.182168320,-1.457777443647501e-06,1.981600325962063e-05,-3.7313166103558615e-06,-1.2535163023130735e-06
2026-09-21 21:44:34.183168256,-9.406660865352023e-06,-8.687567969900556e-06,-1.0816888789122459e-06,-1.6549749943806091e-06
2026-09-21 21:44:34.184168448,-2.3297132429433987e-05,-1.2782447811332531e-05,-1.5634391274943482e-06,2.8413628569978755e-06
2026-09-21 21:44:34.185168384,-1.7676709830993786e-05,-9.089027116715442e-06,-3.7313166103558615e-06,3.4034051168418955e-06
2026-09-21 21:44:34.186168320,-1.085191161109833e-05,-2.5693461225273495e-07,-4.373650426714448e-06,9.143608963313454e-07
2026-09-21 21:44:34.187168512,-5.7132401707349345e-06,9.8598247859627e-06,-3.1692743505118415e-06,4.607781193044502e-06
2026-09-21 21:44:34.188168448,2.0750592284457525e-06,6.808739271946251e-06,2.290564680151874e-06,1.1144337719315445e-07
2026-09-21 21:44:34.189168384,9.140734618995339e-06,4.078819983988069e-06,6.305152510321932e-06,1.8778619050863199e-06
2026-09-21 21:44:34.190168576,1.042540134221781e-05,1.668462391535286e-05,7.0277778831950855e-06,-1.8155585621570935e-06
2026-09-21 21:44:34.191168512,1.3877946912543848e-05,2.8166345146019012e-05,6.385443612089148e-06,2.680779289221391e-06
2026-09-21 21:44:34.192168448,1.7009324437822215e-05,2.1903588276472874e-05,-1.4028555597178638e-06,-2.900153219798085e-07
2026-09-21 21:44:34.193168640,1.604582394065801e-05,4.8014453568612225e-06,-3.590625397009717e-07,6.7756586759060156e-06
2026-09-21 21:44:34.194168576,1.3396196663961746e-05,7.0496143962373026e-06,-5.1765678108495194e-06,-1.976142129933578e-06
2026-09-21 21:44:34.195168768,1.580494972586166e-05,-7.563483904959867e-06,4.538733719527954e-06,-8.520575534021191e-07
2026-09-21 21:44:34.196168704,1.0746569387265481e-05,-2.0811623471672647e-05,6.847299687251507e-07,-3.9834353628975805e-06
2026-09-21 21:44:34.197168640,8.706835501470778e-07,-2.595029400254134e-05,4.137274572713068e-06,8.340691124431032e-07
2026-09-21 21:44:34.198168832,2.235643250969588e-06,-1.5030616850708611e-05,-1.1619804354268126e-06,-1.8155585621570935e-06
