Timestamp,EMG1,EMG2,EMG3,EMG4
2026-09-21 21:53:11.190221056,-8.443453793915978e-07,-5.5569274991285056e-05,3.175059646309819e-06,-3.998528882220853e-06
2026-09-21 21:53:11.191220992,5.65928667128901e-06,-5.147439878783189e-05,5.9049789342680015e-06,6.583925369341159e-07
2026-09-21 21:53:11.192220672,6.78337119097705e-06,-3.292700421297923e-05,1.8510783775127493e-05,1.6315283573931083e-05
2026-09-21 21:53:11.193220608,1.208262619911693e-05,-9.321230209025089e-06,-2.204487373091979e-06,-1.0903619113378227e-05
2026-09-21 21:53:11.194220544,2.0834426322835498e-05,1.2116665857320186e-05,6.065562956791837e-06,-1.4597039807995316e-05
2026-09-21 21:53:11.195220224,1.9710341803147458e-05,1.4846586964267772e-05,8.554606210964266e-06,-4.480279585550306e-06
2026-09-21 21:53:11.196220160,2.500959817552939e-05,2.745238998613786e-05,1.216773580381414e-05,-1.4291929346654797e-06
2026-09-21 21:53:11.197220096,2.2119094865047373e-05,2.520422094676178e-05,6.547313205373939e-06,1.246127976628486e-05
2026-09-21 21:53:11.198220032,8.870955753081944e-06,1.4766294953005854e-05,-9.029286047734786e-06,-1.4452508878548542e-07
2026-09-21 21:53:11.199219712,-4.3771819946414325e-06,2.801443224598188e-05,-2.3642383894184604e-05,2.1036439648014493e-06
2026-09-21 21:53:11.200219648,4.214035016048001e-06,2.632830546644982e-05,-2.9262806492624804e-05,1.605848609642635e-08
2026-09-21 21:53:11.201219584,1.2002334187855013e-05,9.065580343303736e-06,-3.0948933272156864e-05,1.8627687268235604e-06
2026-09-21 21:53:11.202219520,1.063737363438122e-05,2.2407807591662277e-06,-1.055482880474301e-05,-3.2759030546003487e-06
2026-09-21 21:53:11.203219200,4.1337430047860835e-06,8.503538083459716e-06,3.3356427593389526e-06,-1.750359842844773e-06
2026-09-21 21:53:11.204219136,-1.120198066928424e-05,2.5605679184081964e-05,1.5941448509693146e-05,-3.1153194868238643e-06
2026-09-21 21:53:11.205219072,-9.114395652431995e-06,1.8780880054691806e-05,2.27662458200939e-05,-4.399987574288389e-06
2026-09-21 21:53:11.206218752,-7.26768530512345e-06,8.342954060935881e-06,2.4853834474924952e-05,-3.2759030546003487e-06
2026-09-21 21:53:11.207218688,-5.58155852559139e-06,-1.1314722314637038e-06,2.3007123672869056e-05,8.446691936114803e-06
2026-09-21 21:53:11.208218624,-9.246369359061646e-07,1.4445126907958183e-05,1.786845132301096e-05,6.583925369341159e-07
2026-09-21 21:53:11.209218560,-2.2895967504155124e-06,-1.2773775779351126e-05,-2.5256545086449478e-06,-3.5167786336387508e-06
2026-09-21 21:53:11.210218240,-8.793228516879026e-06,-4.625543442671187e-05,2.0426530511485907e-07,1.07751529867528e-05
2026-09-21 21:53:11.211218176,-9.917313036567066e-06,-5.075177250546403e-05,1.2810070074920077e-05,5.1547303883126006e-06
2026-09-21 21:53:11.212218112,-2.3807786419638433e-05,-4.665689266403206e-05,-3.248280336265452e-06,1.605848609642635e-08
2026-09-21 21:53:11.213218048,-2.5654495402704924e-05,-3.557663148967549e-05,-2.629201117088087e-05,-4.64086269857944e-06
2026-09-21 21:53:11.214217728,-2.051582487183623e-05,-1.1970858395216055e-05,-2.934309668489732e-05,-6.005822797305882e-06
2026-09-21 21:53:11.215217664,-1.8990280295838602e-05,-1.5021943909232505e-05,-1.5452626030310057e-05,4.978089691576315e-07
2026-09-21 21:53:11.216217600,2.3673246687394567e-06,-1.1314722314637038e-06,-2.8468216441979166e-06,1.3424780263449065e-05
2026-09-21 21:53:11.217217280,1.152058393927291e-05,1.653271283430513e-05,1.3211528312240262e-05,1.1738653483917005e-05
2026-09-21 21:53:11.218217216,1.9790633814409375e-05,9.707914614409674e-06,1.94742860912811e-05,8.189759910237626e-07
2026-09-21 21:53:11.219217152,1.7301588741247542e-05,-1.7510988982394338e-05,9.999858775699977e-06,-3.3561950658622663e-06
2026-09-21 21:53:11.220217088,1.9549757780623622e-05,1.597067057446111e-05,-1.2481830708566122e-05,-1.2429162779881153e-05
2026-09-21 21:53:11.221216768,2.163734461646527e-05,1.1474333405203652e-05,-3.39197285939008e-05,-8.976617209555116e-06
2026-09-21 21:53:11.222216704,2.3484053599531762e-05,-1.718982275633607e-05,-3.1189807486953214e-05,-3.6773617466678843e-06
2026-09-21 21:53:11.223216640,2.1797926819999702e-05,-6.109560672484804e-06,-2.8700764232780784e-05,5.074438377050683e-06
2026-09-21 21:53:11.224216320,2.332347139599733e-05,1.7496213331469335e-05,-2.6452595193404704e-05,6.198523351486074e-06
2026-09-21 21:53:11.225216256,1.9148299543303438e-05,3.2831940188771114e-05,-1.6014668290154077e-05,8.992677749120048e-07
2026-09-21 21:53:11.226216192,1.0075332284031902e-05,1.8941464077215642e-05,1.2488902029872406e-05,-6.423329779181586e-08
2026-09-21 21:53:11.227216128,1.5936630006763153e-05,3.154727164655924e-05,3.296330032753758e-05,-9.474424587097019e-07
2026-09-21 21:53:11.228215808,1.063737363438122e-05,4.302899105823599e-05,4.4043561501894146e-05,-3.3561950658622663e-06
2026-09-21 21:53:11.229215744,1.8855744201573543e-06,2.4160426619346254e-05,4.7415815060958266e-05,1.702185159047076e-06
2026-09-21 21:53:11.230215680,3.0096584850980435e-06,2.664947351149749e-05,4.436472590896301e-05,-2.248166453000522e-07
2026-09-21 21:53:11.231215616,8.308913493237924e-06,2.440130447212141e-05,4.7094647015910596e-05,-1.991235421883175e-06
2026-09-21 21:53:11.232215296,5.418411546997959e-06,9.788206625671592e-06,9.116648470808286e-06,1.702185159047076e-06
2026-09-21 21:53:11.233215232,-2.5304718747065635e-06,-7.313936748687411e-06,-2.910222247010097e-05,2.1839357486896915e-06
2026-09-21 21:53:11.234215168,-1.4866791389067657e-06,-5.065767709311331e-06,-3.4000018786173314e-05,1.605848609642635e-08
2026-09-21 21:53:11.235214848,-6.304184353211895e-06,-7.153353180910926e-06,-3.8496356864925474e-05,-3.6773617466678843e-06
2026-09-21 21:53:11.236214784,-7.187393293861533e-06,-1.5329309235312394e-06,-2.621171915961895e-05,8.189759910237626e-07
2026-09-21 21:53:11.237214720,-3.1728059184388258e-06,3.6057413126400206e-06,-2.7748586717279977e-07,2.585394440757227e-06
2026-09-21 21:53:11.238214656,4.4032273649463605e-07,8.262662049673963e-06,3.0947676350479014e-06,1.0598512290016515e-06
2026-09-21 21:53:11.239214336,3.7322847674658988e-06,1.5328336303355172e-05,-6.058491180738201e-06,-1.4291929346654797e-06
2026-09-21 21:53:11.240214272,-4.428866589023528e-07,1.0364052513978095e-06,-2.6051135137095116e-05,-3.5970701901533175e-06
2026-09-21 21:53:11.241214208,-6.6253510340175126e-06,-1.9277407773188315e-05,-1.778108526195865e-05,3.3883118248922983e-06
2026-09-21 21:53:11.242214144,1.4841152733424678e-06,-2.4897830371628515e-05,-1.1690183754353711e-07,8.687567060405854e-06
2026-09-21 21:53:11.243213824,7.34541345082107e-06,-3.0036502721486613e-05,1.1364817510184366e-05,7.9649416875327e-06
2026-09-21 21:53:11.244213760,4.214035016048001e-06,-2.8510958145488985e-05,2.1802745322929695e-05,-1.9109434106212575e-06
2026-09-21 21:53:11.245213696,7.104538326530019e-06,-1.8635073502082378e-05,3.127717354800552e-05,-3.2759030546003487e-06
2026-09-21 21:53:11.246213376,2.6884918042924255e-06,-1.6935144913077238e-06,2.613849937915802e-05,-4.560571142064873e-06
2026-09-21 21:53:11.247213312,6.703079179715132e-06,5.546544912249374e-07,1.5218821317830589e-05,1.3007264669795404e-06
2026-09-21 21:53:11.248213248,1.6446988411189523e-06,-1.5329309235312394e-06,2.8065504011465237e-05,6.599982043553609e-06
2026-09-21 21:53:11.249213184,-8.231186257035006e-06,-7.153353180910926e-06,2.6379377231933177e-05,-1.4452508878548542e-07
2026-09-21 21:53:11.250212864,-4.056015313835815e-06,-5.467226401378866e-06,2.8538925107568502e-06,4.271520992915612e-06
2026-09-21 21:53:11.251212800,-5.340682946552988e-06,-6.992769613134442e-06,-1.4007374375069048e-05,3.4686036087805405e-06
2026-09-21 21:53:11.252212736,5.206142645874934e-07,-8.357729711860884e-06,-2.3160633645602502e-05,-1.4452508878548542e-07
2026-09-21 21:53:11.253212416,1.015562429529382e-05,-1.2211733519507106e-05,-3.143068533972837e-05,4.978089691576315e-07
2026-09-21 21:53:11.254212352,8.870955753081944e-06,-4.021975200885208e-06,-2.3883259927970357e-05,9.490484444540925e-06
2026-09-21 21:53:11.255212288,6.811978323639778e-07,-8.905971640160715e-07,-7.824909516784828e-06,2.9868531328247627e-06
2026-09-21 21:53:11.256212224,3.8125758692331146e-06,5.853909442521399e-06,2.613017386465799e-06,-5.20290495842346e-06
2026-09-21 21:53:11.257211904,-1.0720230420702137e-05,1.2036375665047672e-05,-3.00740475722705e-06,-4.1591124499973375e-06
2026-09-21 21:53:11.258211840,-1.6982987290248275e-05,9.627622603147756e-06,5.583811798715033e-06,2.585394440757227e-06
2026-09-21 21:53:11.259211776,-7.508560429414501e-06,7.459745120286243e-06,1.0240732990496326e-05,3.4686036087805405e-06
2026-09-21 21:53:11.260211712,8.068038368946873e-06,1.6050960766733624e-05,1.160569354397012e-05,1.0598512290016515e-06
2026-09-21 21:53:11.261211392,3.1111772841541097e-05,-1.6132224800458062e-06,1.2890362086181995e-05,1.7824769429353182e-06
2026-09-21 21:53:11.262211328,4.026503302156925e-05,-1.9277407773188315e-05,2.3488872102461755e-05,-1.509484718553722e-06
2026-09-21 21:53:11.263211264,4.299495049053803e-05,-4.456930764717981e-05,3.63355538866017e-05,1.4613099210691871e-06
2026-09-21 21:53:11.264210944,5.054237408330664e-05,-4.119705408811569e-05,4.1474224417470396e-05,8.52698394737672e-06
2026-09-21 21:53:11.265210880,5.279054312268272e-05,-1.2117637879782706e-06,3.68173023161944e-05,7.563482995465165e-06
2026-09-21 21:53:11.266210816,5.0702958105830476e-05,2.608743125165347e-05,1.5459698261111043e-05,-5.684655661752913e-06
2026-09-21 21:53:11.267210752,6.01773863309063e-05,3.098522938671522e-05,-3.0627765227109194e-05,-7.531365554314107e-06
2026-09-21 21:53:11.268210432,6.531605322379619e-05,2.6488889488973655e-05,-7.679552800254896e-05,-2.3926941139507107e-06
2026-09-21 21:53:11.269210368,5.4396379709942266e-05,1.4204252693161834e-05,-8.273711137007922e-05,-3.918237325706286e-06
2026-09-21 21:53:11.270210304,5.303142097545788e-05,1.789767156878952e-05,-6.635759200435132e-05,-5.2831969696853776e-06
2026-09-21 21:53:11.271209984,4.3958450987702236e-05,1.4525418919220101e-05,-6.145979568827897e-05,-1.4291929346654797e-06
2026-09-21 21:53:11.272209920,2.6294264898751862e-05,1.7576505342731252e-05,-2.9985430956003256e-05,-2.5532772269798443e-06
2026-09-21 21:53:11.273209856,1.3688460967387073e-05,3.6860324144072365e-06,6.868479431432206e-06,-5.684655661752913e-06
2026-09-21 21:53:11.274209792,2.2067411009629723e-06,6.175076578074368e-06,2.164216130040586e-05,-2.7941528060182463e-06
2026-09-21 21:53:11.275209472,-4.056015313835815e-06,8.423246072197799e-06,5.311653148964979e-05,-3.6773617466678843e-06
2026-09-21 21:53:11.276209408,-5.902725206397008e-06,1.4686002941743936e-05,4.083189196535386e-05,3.372255150679848e-07
2026-09-21 21:53:11.277209344,2.6884918042924255e-06,2.4160426619346254e-05,2.22844973905012e-05,2.505102656868985e-06
2026-09-21 21:53:11.278209280,1.0476790521352086e-05,1.556921051815152e-05,1.216773580381414e-05,3.147436700601247e-06
2026-09-21 21:53:11.279208960,6.301620032900246e-06,-1.6935144913077238e-06,3.0144765332806855e-06,1.2140112630731892e-05
2026-09-21 21:53:11.280208896,-5.420974957814906e-06,-1.775186501618009e-05,1.1284525498922449e-05,4.17517298956227e-07
2026-09-21 21:53:11.281208832,-1.3209274584369268e-05,-2.8189791919430718e-05,1.8831951820175163e-05,-4.239404006511904e-06
2026-09-21 21:53:11.282208512,-2.3085160137270577e-05,-2.2569369320990518e-05,7.350231499003712e-06,-8.414574949711096e-06
2026-09-21 21:53:11.283208448,-2.4369828679482453e-05,-3.5402247249294305e-06,-3.087696768488968e-06,6.583925369341159e-07
2026-09-21 21:53:11.284208384,-1.6180068996618502e-05,2.432101064187009e-05,-1.2409863074935856e-06,-2.7941528060182463e-06
2026-09-21 21:53:11.285208320,-1.7223861505044624e-05,5.025524660595693e-05,-2.0270130335120484e-05,-5.925530786043964e-06
2026-09-21 21:53:11.286208000,-1.2406357200234197e-05,6.335660600598203e-06,-3.2875934266485274e-05,6.680273600068176e-06
2026-09-21 21:53:11.287207936,-6.223892341949977e-06,-1.1569399248401169e-05,-3.970073157688603e-05,1.527149106550496e-05
2026-09-21 21:53:11.288207872,-8.632645403849892e-06,-1.7029238733812235e-05,-3.3437976526329294e-05,4.351813004177529e-06
2026-09-21 21:53:11.289207808,-6.464767466241028e-06,7.700620699324645e-06,-2.0189838323858567e-05,-5.524072093976429e-06
2026-09-21 21:53:11.290207488,-4.537765562417917e-06,2.1189633116591722e-05,5.744395821238868e-06,-1.6700682863302063e-06
2026-09-21 21:53:11.291207424,-5.099807822261937e-06,8.904996320779901e-06,2.4050914362305775e-05,1.7824769429353182e-06
2026-09-21 21:53:11.292207360,-8.873520528140943e-06,-3.116058724117465e-05,5.503520696947817e-06,-7.531365554314107e-06
2026-09-21 21:53:11.293207040,-9.355270776723046e-06,-6.46422486170195e-05,2.1312671378836967e-06,-2.2321105461742263e-06
2026-09-21 21:53:11.294206976,-3.89543174605933e-06,-4.21605545852799e-05,-9.198192287840357e-07,-3.195611498085782e-06
2026-09-21 21:53:11.295206912,-1.7275544905714924e-06,-4.625543442671187e-05,2.421149838482961e-05,1.2204346830912982e-06
2026-09-21 21:53:11.296206848,-6.304184353211895e-06,-4.256201282260008e-05,3.432825906202197e-05,-6.005822797305882e-06
2026-09-21 21:53:11.297206528,-2.129013182639028e-06,-1.8956239728140645e-05,5.576615876634605e-05,-5.042321845394326e-06
2026-09-21 21:53:11.298206464,2.7687833608069923e-06,8.74441411724547e-06,5.303623402141966e-05,1.1401430128898937e-06
2026-09-21 21:53:11.299206400,-7.107101737346966e-06,2.7291805963614024e-05,4.043043009005487e-05,-1.2686093668889953e-06
2026-09-21 21:53:11.300206080,-2.8464706701925024e-05,4.415307557792403e-05,2.4372082407353446e-05,8.992677749120048e-07
2026-09-21 21:53:11.301206016,-4.99026027682703e-05,4.720416109194048e-05,1.3283498674354632e-06,-2.3926941139507107e-06
2026-09-21 21:53:11.302205952,-5.263252023723908e-05,3.331368861836381e-05,-2.6372303182142787e-05,-8.976617209555116e-06
2026-09-21 21:53:11.303205888,-2.9829667255398817e-05,3.082464536419138e-05,-2.26788833970204e-05,-9.859826604952104e-06
2026-09-21 21:53:11.304205568,-2.6778579922392964e-05,2.85764745058259e-05,-1.930662983795628e-05,-5.845238774782047e-06
2026-09-21 21:53:11.305205504,-1.85085300472565e-05,2.6488889488973655e-05,-1.6255542504950427e-05,5.074438377050683e-06
2026-09-21 21:53:11.306205440,-1.0961105544993188e-05,2.0868466890533455e-05,-2.452559238008689e-05,4.17517298956227e-07
2026-09-21 21:53:11.307205376,5.09724441144499e-06,1.5729794540675357e-05,-2.2036549125914462e-05,-6.648156158917118e-06
2026-09-21 21:53:11.308205056,-1.1655122307274723e-06,4.8101169340952765e-06,-2.4284718165290542e-05,5.074438377050683e-06
2026-09-21 21:53:11.309204992,4.454910140339052e-06,6.175076578074368e-06,-3.472264506854117e-05,2.2337164409691468e-05
2026-09-21 21:53:11.310204928,-4.136306870350381e-06,2.3210727704281453e-06,-3.2875934266485274e-05,6.2788149080006406e-06
2026-09-21 21:53:11.311204608,-2.6107636585948057e-06,-1.3014650903642178e-05,-1.3846790352545213e-05,1.605848609642635e-08
2026-09-21 21:53:11.312204544,-1.2458040146157146e-06,-2.7627749659586698e-05,-1.2409863074935856e-06,-1.8306518541066907e-06
2026-09-21 21:53:11.313204480,-2.5304718747065635e-06,-4.087588604306802e-05,3.3284464734606445e-05,-6.969323294470087e-06
2026-09-21 21:53:11.314204416,1.039649941958487e-05,-3.573721551219933e-05,2.83866684185341e-05,3.950354312109994e-06
2026-09-21 21:53:11.315204096,8.71037264005281e-06,-1.2211733519507106e-05,3.288300649728626e-05,-1.7407252016710117e-05
2026-09-21 21:53:11.316204032,1.0235915397061035e-05,-2.094973297062097e-06,4.5167646021582186e-05,1.0293402738170698e-05
2026-09-21 21:53:11.317203968,8.870955753081944e-06,-1.12482321128482e-05,4.1474224417470396e-05,6.599982043553609e-06
2026-09-21 21:53:11.318203904,1.015562429529382e-05,-2.5138704586424865e-05,2.4612956622149795e-05,-1.0261284842272289e-05
2026-09-21 21:53:11.319203584,-4.428866589023528e-07,-3.268612999818288e-05,2.1561871108133346e-05,-1.1080260264861863e-06
2026-09-21 21:53:11.320203520,-1.8078462744597346e-06,-7.394228759949328e-06,2.1312671378836967e-06,1.6218934888456715e-06
2026-09-21 21:53:11.321203456,2.046157533186488e-06,9.467038580623921e-06,-1.0474537702975795e-05,9.169317308987956e-06
2026-09-21 21:53:11.322203136,-6.14360078543541e-06,2.4802762709441595e-05,-1.2722706742351875e-05,6.921148724359227e-06
2026-09-21 21:53:11.323203072,-1.3530441719922237e-05,3.307281440356746e-05,1.8903921272794832e-06,4.833563252759632e-06
2026-09-21 21:53:11.324203008,-2.4209244656958617e-05,2.552538899180945e-05,-3.7300305848475546e-06,2.9868531328247627e-06
2026-09-21 21:53:11.325202944,-2.5574203391443007e-05,1.4043668670637999e-05,-8.868702934705652e-06,4.672979684983147e-06
2026-09-21 21:53:11.326202624,-1.907057230710052e-05,3.6057413126400206e-06,-2.3000049623078667e-05,1.605848609642635e-08
2026-09-21 21:53:11.327202560,-1.088081353373127e-05,9.226164365827572e-06,-2.8620472221518867e-05,7.081732292135712e-06
2026-09-21 21:53:11.328202496,5.09724441144499e-06,4.087491561222123e-06,-2.6934345441986807e-05,1.0935736099781934e-05
2026-09-21 21:53:11.329202176,7.34541345082107e-06,1.1875791642523836e-05,-2.227742334071081e-05,3.372255150679848e-07
2026-09-21 21:53:11.330202112,5.2578275244741235e-06,1.3240750377008226e-05,-1.5211749996524304e-05,1.702185159047076e-06
2026-09-21 21:53:11.331202048,3.41111763191293e-06,2.496334673196543e-05,-1.1357746188878082e-05,-1.2589745892910287e-05
2026-09-21 21:53:11.332201984,-5.180099833523855e-06,1.4043668670637999e-05,-7.592361157549021e-07,-6.969323294470087e-06
2026-09-21 21:53:11.333201664,-3.6545563943946036e-06,1.2678708117164206e-05,-2.124195816577412e-06,5.074438377050683e-06
2026-09-21 21:53:11.334201600,-2.2895967504155124e-06,8.824704309517983e-06,-1.6416126527474262e-05,-1.5319666999857873e-05
2026-09-21 21:53:11.335201536,-1.1362564691808075e-05,6.349460477395041e-07,-4.4919695938006043e-05,-7.049615305732004e-06
2026-09-21 21:53:11.336201472,-1.7223861505044624e-05,1.6787386130090454e-06,-4.082481609657407e-05,-9.538659469399136e-06
2026-09-21 21:53:11.337201152,-1.6180068996618502e-05,6.4962437136273365e-06,-2.227742334071081e-05,1.943060397024965e-06
2026-09-21 21:53:11.338201088,-5.5012665143294726e-06,1.9744382370845415e-05,1.3283498674354632e-06,8.205816811823752e-06
2026-09-21 21:53:11.339201024,7.34541345082107e-06,1.4123960681899916e-05,2.902900450862944e-05,-5.042321845394326e-06
2026-09-21 21:53:11.340200704,1.5936630006763153e-05,1.2437833902367856e-05,4.75763990834821e-05,-6.7284481701790355e-06
2026-09-21 21:53:11.341200640,1.4411087249754928e-05,1.3963376659376081e-05,5.094865264254622e-05,4.191229436401045e-06
2026-09-21 21:53:11.342200576,1.0235915397061035e-05,-4.584017460729228e-06,4.942310624755919e-05,-2.874444362532813e-06
2026-09-21 21:53:11.343200512,7.614898436258954e-07,-3.148175164824352e-05,9.437816515855957e-06,-3.998528882220853e-06
2026-09-21 21:53:11.344200192,4.615493253368186e-06,-3.6205165088176727e-06,-6.94170057613519e-06,5.074438377050683e-06
2026-09-21 21:53:11.345200128,-5.983017217658926e-06,-7.313936748687411e-06,-2.0439038053154945e-06,1.0935736099781934e-05
2026-09-21 21:53:11.346200064,-7.347976861638017e-06,-1.743069697113242e-05,-6.540241884067655e-06,3.5488953926687827e-06
2026-09-21 21:53:11.347200000,-1.3851608855475206e-05,-8.277437700598966e-06,-2.44536249738303e-06,-3.195611498085782e-06
2026-09-21 21:53:11.348199680,-1.0399063285149168e-05,-1.1007356988557149e-05,-6.138783192000119e-06,-2.312402102688793e-06
2026-09-21 21:53:11.349199616,-1.144285579357529e-05,-8.518312824890018e-06,-1.6255542504950427e-05,-4.7211547098413575e-06
2026-09-21 21:53:11.350199552,-8.552353392587975e-06,-1.5343111954280175e-05,-3.15912657242734e-05,-2.5532772269798443e-06
2026-09-21 21:53:11.351199232,-5.902725206397008e-06,-2.9956210710224696e-05,-4.5481738197850063e-05,6.037939783709589e-06
2026-09-21 21:53:11.352199168,-5.099807822261937e-06,-2.81094999081688e-05,-2.7817553927889094e-05,4.913855264021549e-06
2026-09-21 21:53:11.353199104,-1.1683731827361044e-05,-3.32481722580269e-05,-1.6335834516212344e-05,-2.4729856704652775e-06
2026-09-21 21:53:11.354199040,-1.9684296148625435e-06,-1.5985446225386113e-05,-1.0073078556160908e-05,4.271520992915612e-06
2026-09-21 21:53:11.355198720,-3.253097702327068e-06,7.290427106454445e-08,1.4656779057986569e-05,1.5753241314087063e-05
2026-09-21 21:53:11.356198656,4.936660388921155e-06,1.8941464077215642e-05,2.477354064467363e-05,7.9649416875327e-06
2026-09-21 21:53:11.357198592,-8.95381162990816e-06,1.1394041393941734e-05,2.782462615869008e-05,-7.691949576837942e-06
2026-09-21 21:53:11.358198272,-1.8428238035994582e-05,-4.664309017243795e-06,4.1715098632266745e-05,-1.4291929346654797e-06
2026-09-21 21:53:11.359198208,-9.837021025305148e-06,-1.0927064977295231e-05,3.9226055378094316e-05,-7.049615305732004e-06
2026-09-21 21:53:11.360198144,-1.4493943126581144e-05,-2.0401492292876355e-05,4.605085268849507e-05,-1.9109434106212575e-06
2026-09-21 21:53:11.361198080,-1.6472627066832501e-06,-8.357729711860884e-06,3.9788097637938336e-05,-6.567865057149902e-06
2026-09-21 21:53:11.362197760,1.3929335182183422e-05,-5.694300284631026e-07,4.163480843999423e-05,-7.932824701128993e-06
2026-09-21 21:53:11.363197696,3.2797899621073157e-05,1.2277249879844021e-05,2.2605665435548872e-05,-1.4291929346654797e-06
2026-09-21 21:53:11.364197632,3.5286942875245586e-05,3.130639379378408e-05,-1.537233401904814e-05,-9.618951480661053e-06
2026-09-21 21:53:11.365197568,2.8462143745855428e-05,3.379544068593532e-05,-2.0832172594964504e-05,1.605848609642635e-08
2026-09-21 21:53:11.366197248,2.6374558729003184e-05,3.154727164655924e-05,-1.593437627889216e-05,-3.837945314444369e-06
2026-09-21 21:53:11.367197184,1.6900130503927357e-05,4.328366685513174e-06,-2.043071435764432e-05,6.760565156582743e-06
2026-09-21 21:53:11.368197120,4.856369287153939e-06,-1.4219027434592135e-05,-2.452559238008689e-05,5.395605512603652e-06
2026-09-21 21:53:11.369196800,-2.9319307941477746e-06,-1.7591280993656255e-05,-2.0832172594964504e-05,-1.1080260264861863e-06
2026-09-21 21:53:11.370196736,-9.997605047828984e-06,-1.4540193660650402e-05,-2.4204426154028624e-05,2.3445190890925005e-06
2026-09-21 21:53:11.371196672,-1.907057230710052e-05,-6.497215849776694e-07,-2.7255511668045074e-05,1.832257657952141e-05
2026-09-21 21:53:11.372196608,-8.472061381326057e-06,1.8393226355328807e-06,-2.452559238008689e-05,-6.969323294470087e-06
2026-09-21 21:53:11.373196288,-1.4063873550185235e-06,-4.088464322649088e-07,-1.7227370108230389e-06,-1.7086083971662447e-05
2026-09-21 21:53:11.374196224,1.0316207408322953e-05,-2.4964319891296327e-06,1.3283498674354632e-06,-1.750359842844773e-06
2026-09-21 21:53:11.375196160,1.4973129509598948e-05,-3.100000321865082e-05,4.058269041706808e-06,-4.480279585550306e-06
2026-09-21 21:53:11.376196096,1.6338088244083337e-05,-2.6905123377218843e-05,1.5692249917265144e-06,8.125524800561834e-06
2026-09-21 21:53:11.377195776,1.7622756786295213e-05,2.1430509150377475e-05,-5.25557379660313e-06,-3.3561950658622663e-06
2026-09-21 21:53:11.378195712,1.6498672266607173e-05,4.118228025618009e-05,-3.1679883250035346e-06,-5.443780537461862e-06
2026-09-21 21:53:11.379195648,1.545487975818105e-05,3.524068961269222e-05,-5.014698672312079e-06,-7.2904904300230555e-06
2026-09-21 21:53:11.380195328,1.2564376447699033e-05,1.8861172065953724e-05,-2.7496387701830827e-05,-5.6043636504909955e-06
2026-09-21 21:53:11.381195264,-6.837618116151134e-07,4.087491561222123e-06,-3.054747503483668e-05,-4.07882043873542e-06
2026-09-21 21:53:11.382195200,-2.5304718747065635e-06,-4.088464322649088e-07,-3.327739250380546e-05,-2.7138607947563287e-06
2026-09-21 21:53:11.383195136,2.608199793030508e-06,3.6860324144072365e-06,-1.5613210052833892e-05,1.1401430128898937e-06
2026-09-21 21:53:11.384194816,4.1337430047860835e-06,2.962026519526262e-05,-4.13148927691509e-06,4.5926881284685805e-06
2026-09-21 21:53:11.385194752,-4.142797038753088e-08,4.648153480957262e-05,2.726258389884606e-05,5.636480636894703e-06
2026-09-21 21:53:11.386194688,-1.3260957985039568e-06,3.940709518701624e-07,5.873695408808999e-05,2.7459780085337115e-06
2026-09-21 21:53:11.387194368,2.1264495444484055e-06,-7.21896649338305e-05,5.464207424665801e-05,1.8627687268235604e-06
2026-09-21 21:53:11.388194304,-3.1728059184388258e-06,-6.255465996218845e-05,5.094865264254622e-05,5.877356215933105e-06
2026-09-21 21:53:11.389194240,-2.20930496652727e-06,-1.8635073502082378e-05,4.75763990834821e-05,1.246127976628486e-05
2026-09-21 21:53:11.390194176,-4.858932697970886e-06,5.291867182677379e-06,1.3773570572084282e-05,1.8643742805579677e-05
2026-09-21 21:53:11.391193856,-2.4501800908183213e-06,1.2518125913629774e-05,-1.7700795069686137e-05,6.599982043553609e-06
2026-09-21 21:53:11.392193792,1.16294859253685e-06,1.9102048099739477e-05,-1.3605915228254162e-05,-1.2429162779881153e-05
2026-09-21 21:53:11.393193728,-2.129013182639028e-06,1.196988364426943e-06,-1.5131458894757088e-05,1.766420467674834e-07
2026-09-21 21:53:11.394193664,-5.23178243838629e-07,5.452451205201214e-06,-1.8824879589374177e-05,2.4248108729807427e-06
2026-09-21 21:53:11.395193344,2.4476166800013743e-06,2.183196738769766e-05,-8.708118912181817e-06,9.249609320249874e-06
2026-09-21 21:53:11.396193280,-5.661850082105957e-06,2.6729763703770004e-05,4.4514041519505554e-07,7.162024303397629e-06
2026-09-21 21:53:11.397193216,-2.20930496652727e-06,2.2233425625017844e-05,-2.2847793843538966e-06,1.5416017049574293e-06
2026-09-21 21:53:11.398192896,9.220734114023799e-07,1.8138547602575272e-05,5.262645572656766e-06,-3.5970701901533175e-06
2026-09-21 21:53:11.399192832,-4.142797038753088e-08,2.183196738769766e-05,2.5977915356634185e-05,-5.122613401908893e-06
2026-09-21 21:53:11.400192768,2.608199793030508e-06,1.845971382863354e-05,2.3247997887665406e-05,-3.757653757929802e-06
2026-09-21 21:53:11.401192704,3.41111763191293e-06,9.30645637708949e-06,5.583811798715033e-06,5.315313956089085e-06
2026-09-21 21:53:11.402192384,-1.6472627066832501e-06,1.0364052513978095e-06,-1.2409863074935856e-06,-5.2831969696853776e-06
2026-09-21 21:53:11.403192320,-8.873520528140943e-06,-6.5110193645523395e-06,8.465986525152402e-07,-1.8129878299077973e-05
2026-09-21 21:53:11.404192256,-7.910019121482037e-06,-8.759187949181069e-06,-1.0001111832025344e-06,8.992677749120048e-07
2026-09-21 21:53:11.405192192,-1.0559647307673004e-05,-1.0846773875528015e-05,-2.686238076421432e-06,3.3883118248922983e-06
2026-09-21 21:53:11.406191872,-9.756729923537932e-06,-1.2693483768089209e-05,-4.211781288177008e-06,-3.436486622376833e-06
2026-09-21 21:53:11.407191808,-7.588851985929068e-06,-1.4379610547621269e-05,-5.576740932156099e-06,7.001440735621145e-06
2026-09-21 21:53:11.408191744,-3.0122225780360168e-06,-1.2854066881118342e-05,-6.8614085648732726e-06,1.6475865777465515e-05
2026-09-21 21:53:11.409191424,-7.187393293861533e-06,-5.788393536931835e-06,-1.7459919035900384e-05,-9.458367458137218e-06
2026-09-21 21:53:11.410191360,9.220734114023799e-07,-7.0730616243963595e-06,-2.733580367930699e-05,-2.0538629541988485e-05
2026-09-21 21:53:11.411191296,-2.5304718747065635e-06,-8.197145689337049e-06,-2.0832172594964504e-05,-1.0421868864796124e-05
2026-09-21 21:53:11.412191232,2.7687833608069923e-06,-7.153353180910926e-06,-7.905201528046746e-06,-1.2686093668889953e-06
2026-09-21 21:53:11.413190912,1.8052824088954367e-06,-4.2628503251762595e-06,-2.766529632935999e-06,7.001440735621145e-06
2026-09-21 21:53:11.414190848,9.220734114023799e-07,-3.379641157152946e-06,-1.2409863074935856e-06,-5.6043636504909955e-06
2026-09-21 21:53:11.415190784,3.3308256206510123e-06,-9.708886636872194e-07,-1.6897876776056364e-05,1.2204346830912982e-06
2026-09-21 21:53:11.416190464,1.16294859253685e-06,-1.6935144913077238e-06,-2.733580367930699e-05,1.583353332534898e-05
2026-09-21 21:53:11.417190400,4.454910140339052e-06,2.8831150302721653e-06,-1.4087666386330966e-05,2.585394440757227e-06
2026-09-21 21:53:11.418190336,2.6884918042924255e-06,2.3210727704281453e-06,-2.0439038053154945e-06,-9.458367458137218e-06
2026-09-21 21:53:11.419190272,2.2067411009629723e-06,7.955300702633394e-07,5.744395821238868e-06,-1.6700682863302063e-06
2026-09-21 21:53:11.420189952,2.6884918042924255e-06,4.2480746742512565e-06,2.7101999876322225e-05,-3.0350279303092975e-06
2026-09-21 21:53:11.421189888,-2.20930496652727e-06,5.532743216463132e-06,4.8539899580646306e-05,8.189759910237626e-07
2026-09-21 21:53:11.422189824,1.0826565812749323e-06,2.3348738409367797e-07,3.464942710706964e-05,1.943060397024965e-06
2026-09-21 21:53:11.423189760,2.84907537206891e-06,-4.89138017201185e-07,1.6985241018119268e-05,-1.1883178103744285e-06
2026-09-21 21:53:11.424189440,5.498702648765175e-06,-1.1314722314637038e-06,1.9233410057495348e-05,1.334448916168185e-05
2026-09-21 21:53:11.425189376,6.9439543040061835e-06,-1.012414759316016e-05,1.2970652278454509e-05,2.7957585189142264e-05
2026-09-21 21:53:11.426189312,3.892867880495032e-06,1.5984475112418295e-06,-1.1759205335692968e-05,-5.459837666421663e-07
2026-09-21 21:53:11.427188992,1.0826565812749323e-06,9.386746569362003e-06,-2.8620472221518867e-05,-2.1020379790570587e-05
2026-09-21 21:53:11.428188928,6.542496066685999e-06,1.0751707122835796e-05,-3.167155955452472e-05,-1.73269600054482e-05
2026-09-21 21:53:11.429188864,-2.2895967504155124e-06,1.2036375665047672e-05,-3.44014770234935e-05,-7.210198418761138e-06
2026-09-21 21:53:11.430188800,-1.1655122307274723e-06,1.3160460184735712e-05,-4.194890061626211e-05,-4.1591124499973375e-06
2026-09-21 21:53:11.431188480,6.22132893113303e-06,-7.300135962395871e-07,-4.877370156464167e-05,-1.2429162779881153e-05
2026-09-21 21:53:11.432188416,9.111830877372995e-06,-1.0204439604422078e-05,-3.416060280869715e-05,-4.881738277617842e-06
2026-09-21 21:53:11.433188352,9.995040272769984e-06,-1.8795657524606213e-05,-2.0912464606226422e-05,-2.633569238241762e-06
2026-09-21 21:53:11.434188032,7.586288575112121e-06,-1.4138735423330218e-05,5.021769538871013e-06,7.804357665008865e-06
2026-09-21 21:53:11.435187968,1.0023650247603655e-06,-9.963564480131026e-06,3.850342909572646e-05,1.3424780263449065e-05
2026-09-21 21:53:11.436187904,-5.180099833523855e-06,-1.3817568287777249e-05,6.997778837103397e-05,-5.6043636504909955e-06
2026-09-21 21:53:11.437187840,-4.3771819946414325e-06,-2.2007327061146498e-05,8.226242789532989e-05,7.001440735621145e-06
2026-09-21 21:53:11.438187520,2.2067411009629723e-06,-8.116854587569833e-06,6.371503695845604e-05,4.753271696245065e-06
2026-09-21 21:53:11.439187456,-2.20930496652727e-06,8.985288332041819e-06,1.9795452317339368e-05,-1.509484718553722e-06
2026-09-21 21:53:11.440187392,-1.2647232324525248e-05,2.0467006834223866e-05,1.8903921272794832e-06,-3.3561950658622663e-06
2026-09-21 21:53:11.441187328,-1.401219196850434e-05,3.09049355564639e-05,-1.448912462365115e-05,1.7824769429353182e-06
2026-09-21 21:53:11.442187008,-4.9392242544854525e-06,3.65253581549041e-05,-1.9386921849218197e-05,9.570776455802843e-06
2026-09-21 21:53:11.443186944,-3.8151397347974125e-06,3.483923137537204e-05,-5.897907612961717e-06,1.0935736099781934e-05
2026-09-21 21:53:11.444186880,3.5717007449420635e-06,1.4445126907958183e-05,-1.3212783187555033e-06,-7.868588909332175e-07
2026-09-21 21:53:11.445186560,1.4250503227231093e-05,2.2474301658803597e-05,-1.3605915228254162e-05,-9.458367458137218e-06
2026-09-21 21:53:11.446186496,1.1359999916749075e-05,4.190490653854795e-05,-2.5256545086449478e-06,-1.6700682863302063e-06
2026-09-21 21:53:11.447186432,1.2243210221640766e-05,8.985288332041819e-06,2.79049199889414e-05,-5.845238774782047e-06
2026-09-21 21:53:11.448186368,1.7863631001091562e-05,-2.24890773097286e-05,1.562028228363488e-05,-1.991235421883175e-06
2026-09-21 21:53:11.449186048,1.1279707905487157e-05,-1.8394197468296625e-05,-1.031395368045196e-05,-8.671506748214597e-07
2026-09-21 21:53:11.450185984,1.039649941958487e-05,1.5087461179064121e-05,-1.368620723951608e-05,-6.1664059103350155e-06
2026-09-21 21:53:11.451185920,9.593582035449799e-06,4.656182863982394e-05,-2.283946560055483e-05,-3.2759030546003487e-06
2026-09-21 21:53:11.452185856,1.176145815406926e-05,4.246694879839197e-05,-3.67299398931209e-05,-2.3926941139507107e-06
2026-09-21 21:53:11.453185536,3.1702425076218788e-06,1.653271283430513e-05,-4.933574382448569e-05,-1.5897765024419641e-06
2026-09-21 21:53:11.454185472,6.622787168453215e-06,6.415951702365419e-06,-3.785402441280894e-05,-3.757653757929802e-06
2026-09-21 21:53:11.455185408,1.3235321603133343e-06,-2.737307113420684e-06,-1.898546179290861e-05,-4.656919827539241e-07
2026-09-21 21:53:11.456185088,-9.355270776723046e-06,-5.467226401378866e-06,1.3934154594608117e-05,-2.2321105461742263e-06
2026-09-21 21:53:11.457185024,-7.990311132743955e-06,2.745238998613786e-05,5.448148658615537e-05,2.6656862246454693e-06
2026-09-21 21:53:11.458184960,-9.274978765461128e-06,2.29560519073857e-05,4.9021648010239005e-05,5.957647772447672e-06
2026-09-21 21:53:11.459184896,-1.0399063285149168e-05,2.4816567929519806e-06,5.391944796429016e-05,1.4950323929951992e-05
2026-09-21 21:53:11.460184576,-3.0122225780360168e-06,6.175076578074368e-06,4.043043009005487e-05,-1.991235421883175e-06
2026-09-21 21:53:11.461184512,7.666579222131986e-06,-3.941683189623291e-06,1.1766277566493955e-05,-8.816034096525982e-06
2026-09-21 21:53:11.462184448,9.031539775605779e-06,-1.9277407773188315e-05,-1.4167957488098182e-05,5.797064204671187e-06
2026-09-21 21:53:11.463184128,-2.691055442483048e-06,-2.2007327061146498e-05,-1.0795704838528764e-05,1.766420467674834e-07
2026-09-21 21:53:11.464184064,-7.347976861638017e-06,-9.401522220287006e-06,-7.744618415017612e-06,8.767859071667772e-06
2026-09-21 21:53:11.465184000,-8.712936505617108e-06,2.080197646137094e-06,5.254324264569732e-07,1.0293402738170698e-05
2026-09-21 21:53:11.466183936,-7.428268872899935e-06,1.2518125913629774e-05,3.0144765332806855e-06,3.2277284844894893e-06
2026-09-21 21:53:11.467183616,-1.566970922795008e-06,6.897702860442223e-06,-8.467243787890766e-06,1.943060397024965e-06
2026-09-21 21:53:11.468183552,5.8198697843181435e-06,5.211576080910163e-06,-1.890516978164669e-05,-6.246697921596933e-06
2026-09-21 21:53:11.469183488,6.78337119097705e-06,-2.5767235456441995e-06,-2.8379596187733114e-05,-1.5881709259701893e-05
2026-09-21 21:53:11.470183424,9.432998012925964e-06,-6.751894488843391e-06,-3.3518270356580615e-05,-1.4597039807995316e-05
2026-09-21 21:53:11.471183104,1.6659256289131008e-05,-8.036562576307915e-06,-3.817519245785661e-05,-8.735742085264064e-06
2026-09-21 21:53:11.472183040,4.053450993524166e-06,-1.1489107237139251e-05,-1.9627796064014547e-05,-5.6043636504909955e-06
2026-09-21 21:53:11.473182976,2.3673246687394567e-06,-1.887594953586813e-05,-1.7138752809842117e-05,-4.64086269857944e-06
2026-09-21 21:53:11.474182656,1.3287002730066888e-05,-2.562045665399637e-05,-1.4890583770466037e-05,-3.757653757929802e-06
2026-09-21 21:53:11.475182592,1.4651961464551277e-05,-3.180291969329119e-05,-4.452656412468059e-06,-1.3489011507772375e-06
2026-09-21 21:53:11.476182528,1.0797957656905055e-05,-1.9759158021770418e-05,8.79548224475002e-06,-3.5167786336387508e-06
2026-09-21 21:53:11.477182464,9.673873137217015e-06,-7.715395440754946e-06,2.0426530511485907e-07,-9.458367458137218e-06
2026-09-21 21:53:11.478182144,8.630080628790893e-06,7.290427106454445e-08,-1.70584607985802e-05,-7.049615305732004e-06
2026-09-21 21:53:11.479182080,7.666579222131986e-06,1.2919584150949959e-05,-1.481029175920412e-05,-4.656919827539241e-07
2026-09-21 21:53:11.480182016,-3.8151397347974125e-06,-1.3014650903642178e-05,-1.2722706742351875e-05,1.278244690183783e-05
2026-09-21 21:53:11.481181952,-1.1603439816099126e-05,-2.4094912077998742e-05,-7.102284143911675e-06,1.0935736099781934e-05
2026-09-21 21:53:11.482181632,-1.7275544905714924e-06,-2.0722658518934622e-05,1.5379406249849126e-05,1.607440754014533e-05
2026-09-21 21:53:11.483181568,-3.0122225780360168e-06,-2.3773745851940475e-05,4.308006100472994e-05,2.3862707166699693e-05
2026-09-21 21:53:11.484181504,-6.464767466241028e-06,-9.883272468869109e-06,5.41603185411077e-05,2.505102656868985e-06
2026-09-21 21:53:11.485181184,5.2578275244741235e-06,-2.3358484213531483e-06,4.4043561501894146e-05,-6.648156158917118e-06
2026-09-21 21:53:11.486181120,6.78337119097705e-06,-4.584017460729228e-06,2.2605665435548872e-05,-3.918237325706286e-06
2026-09-21 21:53:11.487181056,8.14833038020879e-06,5.853909442521399e-06,-1.368620723951608e-05,3.629187176557025e-06
2026-09-21 21:53:11.488180992,1.2002334187855013e-05,-7.394228759949328e-06,-2.845988819899503e-05,-3.195611498085782e-06
2026-09-21 21:53:11.489180672,1.0878249668166973e-05,-5.708101980417268e-06,-3.2956228096736595e-05,-9.458367458137218e-06
2026-09-21 21:53:11.490180608,9.83445715974085e-06,5.211576080910163e-06,-3.705110793816857e-05,-7.611657565576024e-06
2026-09-21 21:53:11.491180544,6.9439543040061835e-06,1.8058255591313355e-05,-3.335768633405678e-05,-5.925530786043964e-06
2026-09-21 21:53:11.492180224,6.060744908609195e-06,1.2919584150949959e-05,-2.9271132007124834e-06,-4.399987574288389e-06
2026-09-21 21:53:11.493180160,2.046157533186488e-06,5.131284069648245e-06,-7.021992132649757e-06,-2.248166453000522e-07
2026-09-21 21:53:11.494180096,4.214035016048001e-06,3.766324425669154e-06,-3.328571892780019e-06,6.2788149080006406e-06
2026-09-21 21:53:11.495180032,9.220734114023799e-07,2.4816567929519806e-06,1.2810070074920077e-05,5.1547303883126006e-06
2026-09-21 21:53:11.496179712,4.615493253368186e-06,3.846616436931072e-06,4.998514850740321e-05,1.1417486348364037e-05
2026-09-21 21:53:11.497179648,6.3819120441621635e-06,7.299161097762408e-06,3.521146936691366e-05,1.0373693839937914e-05
2026-09-21 21:53:11.498179584,3.7322847674658988e-06,1.2598417924891692e-05,1.272977806365816e-05,1.6218934888456715e-06
2026-09-21 21:53:11.499179520,8.228621481976006e-06,1.1634915608738083e-05,4.4514041519505554e-07,-6.567865057149902e-06
2026-09-21 21:53:11.500179200,1.119941589422524e-05,1.2518125913629774e-05,4.1385610529687256e-06,-7.611657565576024e-06
2026-09-21 21:53:11.501179136,4.1337430047860835e-06,6.897702860442223e-06,-1.2722706742351875e-05,6.921148724359227e-06
2026-09-21 21:53:11.502179072,5.09724441144499e-06,3.284574177087052e-06,-9.671620318840723e-06,6.583925369341159e-07
2026-09-21 21:53:11.503178752,-1.0852204468392301e-06,-5.306643288349733e-06,4.2188521547359414e-06,-1.2589745892910287e-05
2026-09-21 21:53:11.504178688,-6.70564304527943e-06,-2.2970827558310702e-05,1.729808104755648e-06,-3.998528882220853e-06
2026-09-21 21:53:11.505178624,-5.983017217658926e-06,-2.5459872631472535e-05,8.554606210964266e-06,-5.524072093976429e-06
2026-09-21 21:53:11.506178560,-9.274978765461128e-06,-1.3978151400806382e-05,1.0642193046805914e-05,-1.3489011507772375e-06
2026-09-21 21:53:11.507178240,-3.89543174605933e-06,6.349460477395041e-07,8.79548224475002e-06,2.505102656868985e-06
2026-09-21 21:53:11.508178176,-1.7275544905714924e-06,1.3883084648114163e-05,-1.7138752809842117e-05,1.3810182508677826e-06
2026-09-21 21:53:11.509178112,-2.3698885343037546e-06,1.556921051815152e-05,-2.821901216520928e-05,-1.750359842844773e-06
2026-09-21 21:53:11.510178048,1.8052824088954367e-06,7.780912710586563e-06,-1.8102253307006322e-05,8.928442184696905e-06
2026-09-21 21:53:11.511177728,8.870955753081944e-06,-1.3576693163486198e-05,-8.948994036472868e-06,-9.618951480661053e-06
2026-09-21 21:53:11.512177664,7.907455255917739e-06,-4.1277344280388206e-05,4.941478437103797e-06,-7.129907316993922e-06
2026-09-21 21:53:11.513177600,1.5856337995501235e-05,-5.235760545474477e-05,1.7547283277963288e-05,-3.051084149774397e-07
2026-09-21 21:53:11.514177280,2.1155592548893765e-05,-2.192703504988458e-05,1.4889329804645968e-06,-6.567865057149902e-06
2026-09-21 21:53:11.515177216,1.4411087249754928e-05,3.130639379378408e-05,-2.155479887733236e-05,-9.474424587097019e-07
2026-09-21 21:53:11.516177152,1.7060714526451193e-05,5.306545790517703e-05,-1.8503711544326507e-05,-2.633569238241762e-06
2026-09-21 21:53:11.517177088,1.4651961464551277e-05,3.331368861836381e-05,-4.613239980244543e-06,-1.1080260264861863e-06
2026-09-21 21:53:11.518176768,3.7322847674658988e-06,2.737209615588654e-05,7.992563951120246e-06,3.067144916713005e-06
2026-09-21 21:53:11.519176704,-1.3530441719922237e-05,7.290427106454445e-08,1.167765844911628e-06,-1.387441352562746e-05
2026-09-21 21:53:11.520176640,-2.0355240849312395e-05,4.970700956619112e-06,1.160569354397012e-05,-2.3926941139507107e-06
2026-09-21 21:53:11.521176320,-1.8267654013470747e-05,9.467038580623921e-06,9.758982741914224e-06,8.045232789299916e-06
2026-09-21 21:53:11.522176256,-5.01951626574737e-06,-2.8175991246826015e-06,8.072855962382164e-06,6.198523351486074e-06
2026-09-21 21:53:11.523176192,-3.33338948621531e-06,8.262662049673963e-06,9.598398719390389e-06,7.884649676270783e-06
2026-09-21 21:53:11.524176128,1.0797957656905055e-05,1.1634915608738083e-05,1.6664074792061e-05,6.359106464515207e-06
2026-09-21 21:53:11.525175808,1.264466845896095e-05,8.583830094721634e-06,1.0160440979234409e-05,2.1839357486896915e-06
2026-09-21 21:53:11.526175744,1.433079523849301e-05,5.853909442521399e-06,2.308741386514157e-05,3.4686036087805405e-06
2026-09-21 21:53:11.527175680,1.5856337995501235e-05,8.342954060935881e-06,7.510813702538144e-06,1.605848609642635e-08
2026-09-21 21:53:11.528175616,1.1681167961796746e-05,1.0591123100311961e-05,-2.9271132007124834e-06,3.147436700601247e-06
2026-09-21 21:53:11.529175296,1.5535171769442968e-05,8.503538083459716e-06,-1.2401539606798906e-05,2.569337311797426e-07
2026-09-21 21:53:11.530175232,1.208262619911693e-05,6.656827736151172e-06,-1.4087666386330966e-05,-1.2991205039725173e-05
2026-09-21 21:53:11.531175168,1.1038833690690808e-05,-1.237231663253624e-05,-6.2993663050292525e-06,2.569337311797426e-07
2026-09-21 21:53:11.532174848,1.2002334187855013e-05,-9.883272468869109e-06,6.547313205373939e-06,1.943060397024965e-06
2026-09-21 21:53:11.533174784,1.4651961464551277e-05,-1.2131441508245189e-05,1.1685985555232037e-05,4.17517298956227e-07
2026-09-21 21:53:11.534174720,7.425704552588286e-06,-3.100000321865082e-05,1.0160440979234409e-05,1.0293402738170698e-05
2026-09-21 21:53:11.535174656,-1.3260957985039568e-06,-3.348904647282325e-05,-8.386951776628848e-06,9.008734195958823e-06
2026-09-21 21:53:11.536174336,-2.0201107986395073e-07,-2.6664249162422493e-05,-4.6364948502741754e-05,8.189759910237626e-07
2026-09-21 21:53:11.537174272,-3.33338948621531e-06,-7.795687452016864e-06,-4.090510992682539e-05,-4.480279585550306e-06
2026-09-21 21:53:11.538174208,-4.428866589023528e-07,9.86849863693351e-06,-3.6007313610753044e-05,-3.5167786336387508e-06
2026-09-21 21:53:11.539174144,9.27241489989683e-06,1.2116665857320186e-05,-2.2518299374496564e-05,4.432104560692096e-06
2026-09-21 21:53:11.540173824,1.0557082532614004e-05,1.0029080840467941e-05,3.07151312881615e-05,5.4758970691182185e-06
2026-09-21 21:53:11.541173760,9.432998012925964e-06,4.408658696775092e-06,3.794138683588244e-05,-5.20290495842346e-06
2026-09-21 21:53:11.542173696,1.4732253475813195e-05,9.547330591885839e-06,4.4525309931486845e-05,1.8627687268235604e-06
2026-09-21 21:53:11.543173376,7.987746357684955e-06,4.890408945357194e-06,2.6620251446729526e-05,-4.64086269857944e-06
2026-09-21 21:53:11.544173312,7.104538326530019e-06,3.525449301378103e-06,-6.789441044929845e-07,-1.1883178103744285e-06
2026-09-21 21:53:11.545173248,4.6957852646301035e-06,2.2407807591662277e-06,-5.576740932156099e-06,-6.487573045887984e-06
2026-09-21 21:53:11.546173184,-4.778640686708968e-06,-1.2117637879782706e-06,-8.708118912181817e-06,-7.451074452546891e-06
2026-09-21 21:53:11.547172864,1.0826565812749323e-06,-1.6132224800458062e-06,-4.211781288177008e-06,-9.458367458137218e-06
2026-09-21 21:53:11.548172800,2.3673246687394567e-06,8.021787834877614e-06,8.072855962382164e-06,-3.2759030546003487e-06
2026-09-21 21:53:11.549172736,5.8198697843181435e-06,1.7094753275159746e-05,1.915311804623343e-05,2.3445190890925005e-06
2026-09-21 21:53:11.550172416,2.6884918042924255e-06,2.29560519073857e-05,2.252537160529755e-05,3.067144916713005e-06
2026-09-21 21:53:11.551172352,-2.0201107986395073e-07,1.7656795535003766e-05,7.189647476479877e-06,-2.874444362532813e-06
2026-09-21 21:53:11.552172288,5.980453806841979e-06,6.977993962209439e-06,-6.700825451844139e-06,1.1401430128898937e-06
2026-09-21 21:53:11.553172224,8.389205504499841e-06,-8.678896847413853e-06,-9.18986916076392e-06,1.053427786246175e-05
2026-09-21 21:53:11.554171904,3.600311799800693e-07,-1.911682375066448e-05,-2.3650709408684634e-06,6.359106464515207e-06
2026-09-21 21:53:11.555171840,1.403823716827901e-06,-3.621896757977083e-05,-1.6978168787318282e-05,-5.363488526199944e-06
2026-09-21 21:53:11.556171776,2.3673246687394567e-06,-1.550369597680401e-05,-2.2598591385758482e-05,5.556189080380136e-06
2026-09-21 21:53:11.557171712,-5.58155852559139e-06,-1.2773775779351126e-05,-1.7459919035900384e-05,1.3810182508677826e-06
2026-09-21 21:53:11.558171392,-4.537765562417917e-06,4.890408945357194e-06,-6.540241884067655e-06,-2.4729856704652775e-06
2026-09-21 21:53:11.559171328,-9.355270776723046e-06,1.6372128811781295e-05,-2.3650709408684634e-06,-3.5970701901533175e-06
2026-09-21 21:53:11.560171264,-1.0238480172120035e-05,1.845971382863354e-05,-1.080403194464452e-06,-2.5532772269798443e-06
2026-09-21 21:53:11.561170944,-9.435562787984964e-06,1.2839292139688041e-05,9.518108527117874e-06,-1.5897765024419641e-06
2026-09-21 21:53:11.562170880,-4.3771819946414325e-06,1.7977963580051437e-05,-1.1839497346954886e-05,-2.4729856704652775e-06
2026-09-21 21:53:11.563170816,-2.4501800908183213e-06,1.3321042388270143e-05,-2.099275661748834e-05,-6.487573045887984e-06
2026-09-21 21:53:11.564170752,5.206142645874934e-07,4.7436296313208004e-07,-1.2722706742351875e-05,-4.319696017773822e-06
2026-09-21 21:53:11.565170432,7.586288575112121e-06,2.1604896573990118e-06,1.0080150786961894e-05,-1.027734242597944e-06
2026-09-21 21:53:11.566170368,4.6957852646301035e-06,-2.4964319891296327e-06,2.5415873096790165e-05,6.760565156582743e-06
2026-09-21 21:53:11.567170304,3.8125758692331146e-06,-1.1314722314637038e-06,4.4846477976534516e-05,-2.874444362532813e-06
2026-09-21 21:53:11.568169984,1.403823716827901e-06,1.531958275791112e-07,2.7182293706573546e-05,3.629187176557025e-06
2026-09-21 21:53:11.569169920,-9.51585388975218e-06,3.6057413126400206e-06,2.0357494577183388e-05,-6.969323294470087e-06
2026-09-21 21:53:11.570169856,-1.7304153516306542e-05,4.649533821066143e-06,1.4094736798142549e-05,2.9065613489365205e-06
2026-09-21 21:53:11.571169792,-1.3128983482602052e-05,-9.883272468869109e-06,-3.00740475722705e-06,1.1979528608208057e-05
2026-09-21 21:53:11.572169472,-9.274978765461128e-06,-4.1277344280388206e-05,-5.25557379660313e-06,-5.684655661752913e-06
2026-09-21 21:53:11.573169408,-8.150894245773088e-06,-5.4766358516644686e-05,-2.8299304176471196e-05,1.8627687268235604e-06
2026-09-21 21:53:11.574169344,-5.01951626574737e-06,-1.7912447219714522e-05,-3.135039150947705e-05,-3.854001988656819e-07
2026-09-21 21:53:11.575169280,-1.56983187480364e-05,6.817410849180305e-06,-2.3080341634340584e-05,-6.648156158917118e-06
2026-09-21 21:53:11.576168960,-2.8544998713186942e-05,1.1313749382679816e-05,-1.0474537702975795e-05,2.8262695650482783e-06
2026-09-21 21:53:11.577168896,-2.3406326363328844e-05,1.540862831461709e-05,-1.2722706742351875e-05,4.512396117206663e-06
2026-09-21 21:53:11.578168832,-6.14360078543541e-06,1.1715207620000001e-05,-1.898546179290861e-05,-3.2759030546003487e-06
2026-09-21 21:53:11.579168512,5.338119535736041e-06,8.342954060935881e-06,-3.608760380302556e-05,8.992677749120048e-07
2026-09-21 21:53:11.580168448,1.5776045984239317e-05,5.291867182677379e-06,-4.756932321470231e-05,-5.6043636504909955e-06
2026-09-21 21:53:11.581168384,1.7622756786295213e-05,8.021787834877614e-06,-3.2956228096736595e-05,-6.7284481701790355e-06
2026-09-21 21:53:11.582168320,2.6213974706479348e-05,1.0510831089050043e-05,-1.5854084267630242e-05,2.9065613489365205e-06
2026-09-21 21:53:11.583168000,2.468843013048172e-05,1.2759000128426123e-05,9.437816515855957e-06,4.191229436401045e-06
2026-09-21 21:53:11.584167936,1.1841750165331177e-05,6.4962437136273365e-06,3.986838783021085e-05,3.067144916713005e-06
2026-09-21 21:53:11.585167872,1.3527876944863237e-05,8.342954060935881e-06,4.3963267671642825e-05,2.023352180913207e-06
2026-09-21 21:53:11.586167808,8.870955753081944e-06,1.6934171071625315e-05,4.7656689275754616e-05,2.9868531328247627e-06
2026-09-21 21:53:11.587167488,1.8052824088954367e-06,2.1591091353911906e-05,2.4050914362305775e-05,-3.195611498085782e-06
2026-09-21 21:53:11.588167424,-4.698349130194401e-06,1.1715207620000001e-05,2.613017386465799e-06,-7.210198418761138e-06
2026-09-21 21:53:11.589167360,-1.2458040146157146e-06,5.211576080910163e-06,-2.2518299374496564e-05,-5.042321845394326e-06
2026-09-21 21:53:11.590167040,-4.3771819946414325e-06,8.664122105983552e-06,-1.9146045815432444e-05,3.5488953926687827e-06
2026-09-21 21:53:11.591166976,-1.4866791389067657e-06,-7.313936748687411e-06,2.2918502509128302e-06,4.672979684983147e-06
2026-09-21 21:53:11.592166912,-2.3698885343037546e-06,-4.1839386540232226e-05,1.0561901035543997e-05,-2.7138607947563287e-06
2026-09-21 21:53:11.593166848,-4.778640686708968e-06,-1.7109530745074153e-05,2.3167707695392892e-05,2.1036439648014493e-06
2026-09-21 21:53:11.594166528,-1.1655122307274723e-06,-1.2613191756827291e-05,3.464942710706964e-05,6.519690032291692e-06
2026-09-21 21:53:11.595166464,7.614898436258954e-07,7.861203812353779e-06,2.003632835112512e-05,1.2140112630731892e-05
2026-09-21 21:53:11.596166400,9.754165148478933e-06,1.1554623597476166e-05,2.1883039153181016e-05,1.2204346830912982e-06
2026-09-21 21:53:11.597166080,1.882713331724517e-05,2.1671383365173824e-05,2.2445081413025036e-05,-1.1064203135902062e-05
2026-09-21 21:53:11.598166016,2.0352676074253395e-05,3.210931390640326e-05,1.0401317013020162e-05,-1.4452508878548542e-07
2026-09-21 21:53:11.599165952,1.4491377442027442e-05,1.677358704910148e-05,-3.7300305848475546e-06,4.0306458686245605e-06
2026-09-21 21:53:11.600165888,1.344758493360132e-05,2.8831150302721653e-06,-1.6978168787318282e-05,1.766420467674834e-07
2026-09-21 21:53:11.601165568,8.630080628790893e-06,3.940709518701624e-07,-1.40156987527007e-06,-3.2759030546003487e-06
2026-09-21 21:53:11.602165504,5.980453806841979e-06,1.6452420823043212e-05,-3.4891554605565034e-06,-2.2321105461742263e-06
2026-09-21 21:53:11.603165440,3.5717007449420635e-06,6.014493465045234e-06,-1.2963581866642926e-05,6.519690032291692e-06
2026-09-21 21:53:11.604165376,2.84907537206891e-06,7.861203812353779e-06,-1.1277455087110866e-05,9.97223560261773e-06
2026-09-21 21:53:11.605165056,9.220734114023799e-07,2.7225319172430318e-06,-3.4891554605565034e-06,-3.918237325706286e-06
2026-09-21 21:53:11.606164992,-4.45747400590335e-06,-1.9343897292856127e-06,3.5765187931247056e-06,-1.3392663277045358e-05
2026-09-21 21:53:11.607164928,-6.6253510340175126e-06,-1.181027437269222e-05,2.2918502509128302e-06,2.1839357486896915e-06
2026-09-21 21:53:11.608164608,-1.120198066928424e-05,-2.6102206902578473e-05,1.167765844911628e-06,9.635026998466856e-08
2026-09-21 21:53:11.609164544,-7.026809726085048e-06,-3.557663148967549e-05,-8.467243787890766e-06,5.7167726481566206e-06
2026-09-21 21:53:11.610164480,-6.545059477502946e-06,-1.3094942914904095e-05,-1.9636122488009278e-06,4.0306458686245605e-06
2026-09-21 21:53:11.611164416,-4.142797038753088e-08,-3.941683189623291e-06,-7.824909516784828e-06,5.556189080380136e-06
2026-09-21 21:53:11.612164096,-2.691055442483048e-06,-1.2117637879782706e-06,-1.5211749996524304e-05,6.921148724359227e-06
2026-09-21 21:53:11.613164032,2.9293669285834767e-06,-3.700808292705915e-06,-1.0394245691713877e-05,-7.370782441284973e-06
2026-09-21 21:53:11.614163968,-6.837618116151134e-07,3.1239901545632165e-06,2.8538925107568502e-06,-5.524072093976429e-06
2026-09-21 21:53:11.615163904,1.2432401490514167e-06,5.211576080910163e-06,-6.620533440582221e-06,-7.210198418761138e-06
2026-09-21 21:53:11.616163584,3.0096584850980435e-06,7.0582859734713566e-06,-2.2197133148438297e-05,-2.5532772269798443e-06
2026-09-21 21:53:11.617163520,3.4914096431748476e-06,5.3721591939392965e-06,-1.1759205335692968e-05,1.6218934888456715e-06
2026-09-21 21:53:11.618163456,3.97315989175695e-06,6.897702860442223e-06,-2.2847793843538966e-06,2.9065613489365205e-06
2026-09-21 21:53:11.619163136,-9.246369359061646e-07,8.262662049673963e-06,2.8538925107568502e-06,1.7824769429353182e-06
2026-09-21 21:53:11.620163072,-1.566970922795008e-06,1.759030624270963e-06,2.011662036238704e-05,4.913855264021549e-06
2026-09-21 21:53:11.621163008,-1.004928662950988e-06,-1.6935144913077238e-06,2.2364787582773715e-05,2.023352180913207e-06
2026-09-21 21:53:11.622162944,-5.23178243838629e-07,-6.497215849776694e-07,-9.029286047734786e-06,2.9065613489365205e-06
2026-09-21 21:53:11.623162624,-5.983017217658926e-06,3.137793953555956e-07,-4.0503651689505205e-05,5.315313956089085e-06
2026-09-21 21:53:11.624162560,-6.70564304527943e-06,8.262662049673963e-06,-2.821901216520928e-05,-2.7138607947563287e-06
2026-09-21 21:53:11.625162496,-9.997605047828984e-06,7.218869995995192e-06,-9.671620318840723e-06,2.585394440757227e-06
2026-09-21 21:53:11.626162176,-1.004928662950988e-06,8.182370947906747e-06,-1.3043872968410142e-05,5.4758970691182185e-06
2026-09-21 21:53:11.627162112,2.7973916871815163e-07,-1.5329309235312394e-06,-3.890614152624039e-06,1.695761784503702e-05
2026-09-21 21:53:11.628162048,1.403823716827901e-06,-2.8175991246826015e-06,4.379436177259777e-06,-6.567865057149902e-06
2026-09-21 21:53:11.629161984,3.600311799800693e-07,-1.574457019160036e-05,2.2043623175704852e-05,-1.6684625734342262e-05
2026-09-21 21:53:11.630161664,5.177535513212206e-06,-1.40584434120683e-05,2.8868420486105606e-05,-1.9735713067348115e-05
2026-09-21 21:53:11.631161600,2.527908236515941e-06,-3.1387658054882195e-06,3.930634557036683e-05,-5.845238774782047e-06
2026-09-21 21:53:11.632161536,-1.4866791389067657e-06,-1.7738060478222906e-06,3.368592660990544e-05,-3.3561950658622663e-06
2026-09-21 21:53:11.633161472,6.811978323639778e-07,-4.89138017201185e-07,2.164216130040586e-05,-1.1080260264861863e-06
2026-09-21 21:53:11.634161152,-1.2458040146157146e-06,-6.350435796775855e-06,2.011662036238704e-05,9.795594451134093e-07
2026-09-21 21:53:11.635161088,5.206142645874934e-07,-1.1649691259663086e-05,1.0240732990496326e-05,-8.671506748214597e-07
2026-09-21 21:53:11.636161024,-4.3771819946414325e-06,-1.068618985300418e-05,-9.270161172025837e-06,4.271520992915612e-06
2026-09-21 21:53:11.637160704,-2.4501800908183213e-06,7.955300702633394e-07,-1.7540211047162302e-05,5.797064204671187e-06
2026-09-21 21:53:11.638160640,1.72499085238087e-06,1.4926877156540286e-05,-2.002925430133473e-05,1.6218934888456715e-06
2026-09-21 21:53:11.639160576,-9.246369359061646e-07,9.30645637708949e-06,-1.778108526195865e-05,1.0694860975490883e-05
2026-09-21 21:53:11.640160512,5.578994660027092e-06,7.152380590014218e-07,-7.343159268202726e-06,1.6556157788727432e-05
2026-09-21 21:53:11.641160192,8.228621481976006e-06,-1.0204439604422078e-05,5.9049789342680015e-06,6.921148724359227e-06
2026-09-21 21:53:11.642160128,7.425704552588286e-06,-2.0080324247828685e-05,3.183921580784954e-05,-2.1518185349123087e-06
2026-09-21 21:53:11.643160064,6.703079179715132e-06,-2.6583957151160575e-05,5.03866103827022e-05,-8.01311671239091e-06
2026-09-21 21:53:11.644160000,7.34541345082107e-06,-8.919771971704904e-06,3.35253425873816e-05,-1.5399957192130387e-05
2026-09-21 21:53:11.645159680,4.374618129077135e-06,8.74441411724547e-06,5.824687832500786e-06,-6.648156158917118e-06
2026-09-21 21:53:11.646159616,5.900161795580061e-06,2.0226132619427517e-05,-1.2722706742351875e-05,-3.195611498085782e-06
2026-09-21 21:53:11.647159552,7.34541345082107e-06,3.066406134166755e-05,-1.6094960301415995e-05,-6.423329779181586e-08
2026-09-21 21:53:11.648159232,8.630080628790893e-06,1.7415921320207417e-05,-1.8664295566850342e-05,-1.4291929346654797e-06
2026-09-21 21:53:11.649159168,9.432998012925964e-06,1.540862831461709e-05,-1.5613210052833892e-05,-2.3926941139507107e-06
2026-09-21 21:53:11.650159104,6.622787168453215e-06,1.0269956874253694e-05,-4.0744525904301554e-05,-5.042321845394326e-06
2026-09-21 21:53:11.651159040,9.914748261508066e-06,1.1795499631261919e-05,-3.7372272345237434e-05,-2.633569238241762e-06
2026-09-21 21:53:11.652158720,6.863662292744266e-06,7.6203282333153766e-06,-9.671620318840723e-06,2.4248108729807427e-06
2026-09-21 21:53:11.653158656,5.65928667128901e-06,3.766324425669154e-06,8.875774256011937e-06,1.2300695743761025e-05
2026-09-21 21:53:11.654158592,7.425704552588286e-06,3.137793953555956e-07,2.5737041141837835e-05,5.235021944827167e-06
2026-09-21 21:53:11.655158272,8.389205504499841e-06,-2.8175991246826015e-06,3.489030132186599e-05,1.3810182508677826e-06
2026-09-21 21:53:11.656158208,5.65928667128901e-06,-5.708101980417268e-06,1.5459698261111043e-05,2.569337311797426e-07
2026-09-21 21:53:11.657158144,4.615493253368186e-06,-3.0584742489736527e-06,-1.2401539606798906e-05,3.3883118248922983e-06
2026-09-21 21:53:11.658158080,2.28703311222489e-06,9.561132401358918e-07,-3.833577284240164e-05,-3.3561950658622663e-06
2026-09-21 21:53:11.659157760,-4.428866589023528e-07,1.6787386130090454e-06,-4.8452533519594e-05,-7.065673344186507e-07
2026-09-21 21:53:11.660157696,-7.640533681296802e-07,7.6203282333153766e-06,-2.7014637453248724e-05,-1.509484718553722e-06
2026-09-21 21:53:11.661157632,4.294327027309919e-06,5.211576080910163e-06,-1.8833201238521724e-06,-5.122613401908893e-06
2026-09-21 21:53:11.662157568,2.1264495444484055e-06,1.531958275791112e-07,2.172245513065718e-05,-5.764947673014831e-06
2026-09-21 21:53:11.663157248,1.4841152733424678e-06,-9.722689355839975e-06,3.0875715310685337e-05,-9.940118616214022e-06
2026-09-21 21:53:11.664157184,2.046157533186488e-06,-1.3897860299039166e-05,2.2605665435548872e-05,-3.998528882220853e-06
2026-09-21 21:53:11.665157120,5.739577773056226e-06,-4.8248925850202795e-06,4.941478437103797e-06,6.439398475777125e-06
2026-09-21 21:53:11.666156800,-7.640533681296802e-07,1.0364052513978095e-06,-1.5773792256368324e-05,1.3505072274710983e-05
2026-09-21 21:53:11.667156736,5.418411546997959e-06,6.335660600598203e-06,-2.966426472994499e-05,9.65106846706476e-06
2026-09-21 21:53:11.668156672,4.615493253368186e-06,9.226164365827572e-06,-1.70584607985802e-05,3.789770516959834e-06
2026-09-21 21:53:11.669156608,8.228621481976006e-06,1.0109372851729859e-05,-1.0233662578684743e-05,6.583925369341159e-07
2026-09-21 21:53:11.670156288,6.301620032900246e-06,9.30645637708949e-06,8.634898222226184e-06,-2.2321105461742263e-06
2026-09-21 21:53:11.671156224,3.3308256206510123e-06,2.7225319172430318e-06,1.1123943295388017e-05,-6.648156158917118e-06
2026-09-21 21:53:11.672156160,-3.7348481782828458e-06,3.6057413126400206e-06,3.183921580784954e-05,5.395605512603652e-06
2026-09-21 21:53:11.673156096,-6.6253510340175126e-06,1.196988364426943e-06,2.9109294700901955e-05,7.081732292135712e-06
2026-09-21 21:53:11.674155776,-2.20930496652727e-06,4.7436296313208004e-07,2.1561871108133346e-05,8.607275049143936e-06
2026-09-21 21:53:11.675155712,-4.618057573679835e-06,-1.4526389122693217e-06,8.465986525152402e-07,4.432104560692096e-06
2026-09-21 21:53:11.676155648,3.41111763191293e-06,-2.0146812858001795e-06,-7.4234508247172926e-06,5.781007530458737e-07
2026-09-21 21:53:11.677155328,-1.8881378309743013e-06,-2.4964319891296327e-06,-2.508763463993091e-05,1.702185159047076e-06
2026-09-21 21:53:11.678155264,1.0023650247603655e-06,-1.0511802202017861e-06,-4.114598414162174e-05,-1.4291929346654797e-06
2026-09-21 21:53:11.679155200,1.8855744201573543e-06,-3.219057816750137e-06,-3.0708059057360515e-05,-8.173699825420044e-06
2026-09-21 21:53:11.680155136,-5.23178243838629e-07,-6.029268661222886e-06,-1.3605915228254162e-05,-7.2904904300230555e-06
2026-09-21 21:53:11.681154816,1.9944761220358487e-07,-1.2920557992401882e-06,2.4524342734366655e-06,-3.2759030546003487e-06
2026-09-21 21:53:11.682154752,-4.428866589023528e-07,3.284574177087052e-06,8.715190233488102e-06,3.308020041004056e-06
2026-09-21 21:53:11.683154688,2.527908236515941e-06,2.7225319172430318e-06,2.959104676847346e-05,-1.1080260264861863e-06
2026-09-21 21:53:11.684154368,6.22132893113303e-06,1.196988364426943e-06,3.7861096643609926e-05,2.9065613489365205e-06
2026-09-21 21:53:11.685154304,4.776077275892021e-06,7.152380590014218e-07,2.5255292712245136e-05,-2.1518185349123087e-06
2026-09-21 21:53:11.686154240,-1.8881378309743013e-06,4.729825832328061e-06,1.843049358285498e-05,3.789770516959834e-06
2026-09-21 21:53:11.687154176,-2.8516390102595324e-06,1.0364052513978095e-06,-4.613239980244543e-06,-8.253991836681962e-06
2026-09-21 21:53:11.688153856,-2.0201107986395073e-07,6.4962437136273365e-06,-3.2313892006641254e-05,-1.3392663277045358e-05
2026-09-21 21:53:11.689153792,-4.216598881612299e-06,7.218869995995192e-06,-3.6007313610753044e-05,-1.1867120520037133e-05
2026-09-21 21:53:11.690153728,-6.034698003531958e-07,-2.657015556906117e-06,-2.5890552933560684e-05,-1.3232079254521523e-05
2026-09-21 21:53:11.691153664,2.6884918042924255e-06,-6.832186500105308e-06,1.8101001160175656e-06,-1.1947411621804349e-05
2026-09-21 21:53:11.692153344,-2.823030911258684e-07,-2.978182237711735e-06,2.0357494577183388e-05,5.7167726481566206e-06
2026-09-21 21:53:11.693153280,-1.8078462744597346e-06,-6.430727353290422e-06,2.3729749955236912e-05,3.2277284844894893e-06
2026-09-21 21:53:11.694153216,-3.6259464764043514e-07,-7.474520316463895e-06,8.394024007429834e-06,-1.2830621017201338e-05
2026-09-21 21:53:11.695152896,1.8052824088954367e-06,1.2772803756888607e-06,-5.496448920894181e-06,-2.3926941139507107e-06
2026-09-21 21:53:11.696152832,2.2067411009629723e-06,2.401364781690063e-06,-1.3043872968410142e-05,3.2277284844894893e-06
2026-09-21 21:53:11.697152768,3.2505336093890946e-06,9.788206625671592e-06,-6.219074748514686e-06,8.366399924852885e-06
2026-09-21 21:53:11.698152704,2.9293669285834767e-06,1.2678708117164206e-05,4.2188521547359414e-06,9.891943591355812e-06
2026-09-21 21:53:11.699152384,1.4841152733424678e-06,6.4962437136273365e-06,2.0518078599707223e-05,7.242315859912196e-06
2026-09-21 21:53:11.700152320,4.936660388921155e-06,-3.2855487575034203e-07,1.8671367797651328e-05,2.8599919460248202e-05
2026-09-21 21:53:11.701152256,4.1337430047860835e-06,4.7436296313208004e-07,1.6985241018119268e-05,8.992677749120048e-07
2026-09-21 21:53:11.702152192,2.4476166800013743e-06,2.642239905981114e-06,1.5459698261111043e-05,-1.7648126231506467e-05
2026-09-21 21:53:11.703151872,3.892867880495032e-06,-4.584017460729228e-06,8.394024007429834e-06,-7.531365554314107e-06
2026-09-21 21:53:11.704151808,1.6446988411189523e-06,-5.547518412640784e-06,-6.789441044929845e-07,1.6218934888456715e-06
2026-09-21 21:53:11.705151744,-2.8516390102595324e-06,-6.430727353290422e-06,4.4514041519505554e-07,-1.1080260264861863e-06
2026-09-21 21:53:11.706151424,4.374618129077135e-06,-5.627809969155351e-06,-5.986520932310668e-07,-3.5970701901533175e-06
2026-09-21 21:53:11.707151360,5.338119535736041e-06,-4.905184141534846e-06,-1.5621534430465545e-06,-1.3489011507772375e-06
2026-09-21 21:53:11.708151296,-2.6107636585948057e-06,-1.4781068784941453e-05,1.1685985555232037e-05,-7.611657565576024e-06
2026-09-21 21:53:11.709151232,5.206142645874934e-07,-7.715395440754946e-06,2.116041287081316e-05,-1.991235421883175e-06
2026-09-21 21:53:11.710150912,1.4841152733424678e-06,-1.2117637879782706e-06,1.6021740520955063e-05,-3.051084149774397e-07
2026-09-21 21:53:11.711150848,5.900161795580061e-06,-8.767929671193997e-08,1.4496196854452137e-05,-1.8306518541066907e-06
2026-09-21 21:53:11.712150784,3.4914096431748476e-06,3.0436990527960006e-06,1.0321025001758244e-05,1.3826239410263952e-05
2026-09-21 21:53:11.713150464,7.104538326530019e-06,5.9342014537833165e-06,-1.40156987527007e-06,-5.042321845394326e-06
2026-09-21 21:53:11.714150400,9.031539775605779e-06,6.817410849180305e-06,-1.2321247595536988e-05,-2.5532772269798443e-06
2026-09-21 21:53:11.715150336,6.060744908609195e-06,6.014493465045234e-06,-5.25557379660313e-06,-4.801446266355924e-06
2026-09-21 21:53:11.716150272,6.542496066685999e-06,9.627622603147756e-06,-6.540241884067655e-06,1.4613099210691871e-06
2026-09-21 21:53:11.717149952,3.089950496359961e-06,1.2919584150949959e-05,-1.2401539606798906e-05,3.308020041004056e-06
2026-09-21 21:53:11.718149888,2.6884918042924255e-06,9.948788829206023e-06,-2.8379596187733114e-05,4.994146820536116e-06
2026-09-21 21:53:11.719149824,3.892867880495032e-06,1.0430539077788126e-05,-3.5204397136112675e-05,-5.925530786043964e-06
2026-09-21 21:53:11.720149760,2.1264495444484055e-06,7.941495823615696e-06,-2.8941638447577134e-05,6.921148724359227e-06
2026-09-21 21:53:11.721149440,-2.0201107986395073e-07,8.342954060935881e-06,-3.078834924963303e-05,-5.122613401908893e-06
2026-09-21 21:53:11.722149376,3.8864040874386774e-08,7.138577984733274e-06,-3.247447602916509e-05,-9.779534593690187e-06
2026-09-21 21:53:11.723149312,2.527908236515941e-06,4.649533821066143e-06,-1.5211749996524304e-05,-2.7138607947563287e-06
2026-09-21 21:53:11.724148992,3.4914096431748476e-06,1.5984475112418295e-06,-1.2963581866642926e-05,1.1401430128898937e-06
2026-09-21 21:53:11.725148928,1.4841152733424678e-06,-4.088464322649088e-07,-2.7576679713092744e-05,4.5926881284685805e-06
2026-09-21 21:53:11.726148864,1.2432401490514167e-06,-7.300135962395871e-07,-3.3197102311532944e-05,1.4613099210691871e-06
2026-09-21 21:53:11.727148800,4.936660388921155e-06,-1.6935144913077238e-06,-2.115333882102277e-05,8.205816811823752e-06
2026-09-21 21:53:11.728148480,8.630080628790893e-06,-6.189852228999371e-06,2.372142262174748e-06,3.789770516959834e-06
2026-09-21 21:53:11.729148416,6.141036919871112e-06,1.0364052513978095e-06,1.2488902029872406e-05,1.3810182508677826e-06
2026-09-21 21:53:11.730148352,6.542496066685999e-06,-3.7810998492204817e-06,4.6291730541270226e-05,4.994146820536116e-06
2026-09-21 21:53:11.731148288,6.9439543040061835e-06,-6.430727353290422e-06,5.97807411395479e-05,1.0935736099781934e-05
2026-09-21 21:53:11.732147968,5.177535513212206e-06,-8.839479960442986e-06,5.5685861298115924e-05,1.0132818715646863e-05
2026-09-21 21:53:11.733147904,9.593582035449799e-06,-8.116854587569833e-06,2.9751630790997297e-05,6.519690032291692e-06
2026-09-21 21:53:11.734147840,6.622787168453215e-06,-3.5402247249294305e-06,6.145854058559053e-06,5.877356215933105e-06
2026-09-21 21:53:11.735147520,5.09724441144499e-06,-2.978182237711735e-06,-1.5292042007786222e-05,-7.065673344186507e-07
2026-09-21 21:53:11.736147456,9.593582035449799e-06,-7.875979463278782e-06,-1.8021961295744404e-05,1.943060397024965e-06
2026-09-21 21:53:11.737147392,5.418411546997959e-06,-5.9489771047083195e-06,-1.5532918041571975e-05,1.1401430128898937e-06
2026-09-21 21:53:11.738147328,2.7687833608069923e-06,-5.694300284631026e-07,-4.051197720400523e-06,-3.918237325706286e-06
2026-09-21 21:53:11.739147008,9.27241489989683e-06,3.0436990527960006e-06,-1.9636122488009278e-06,-1.1144494237669278e-05
2026-09-21 21:53:11.740146944,1.015562429529382e-05,6.335660600598203e-06,3.6568098948919214e-06,-2.3926941139507107e-06
2026-09-21 21:53:11.741146880,1.095854167942889e-05,5.773618340754183e-06,1.2248027815076057e-05,-1.2686093668889953e-06
2026-09-21 21:53:11.742146560,5.900161795580061e-06,9.467038580623921e-06,7.5911057138000615e-06,-4.399987574288389e-06
2026-09-21 21:53:11.743146496,7.827163244655821e-06,6.014493465045234e-06,-8.06578464107588e-06,-3.436486622376833e-06
2026-09-21 21:53:11.744146432,3.651992756203981e-06,1.1795499631261919e-05,-1.4328541510622017e-05,-4.319696017773822e-06
2026-09-21 21:53:11.745146368,7.34541345082107e-06,6.175076578074368e-06,-4.854115104535595e-06,-6.7284481701790355e-06
2026-09-21 21:53:11.746146048,5.900161795580061e-06,1.1233457371417899e-05,7.189647476479877e-06,-1.6700682863302063e-06
2026-09-21 21:53:11.747145984,4.615493253368186e-06,1.1875791642523836e-05,8.715190233488102e-06,-2.312402102688793e-06
2026-09-21 21:53:11.748145920,3.41111763191293e-06,7.700620699324645e-06,7.350231499003712e-06,-2.874444362532813e-06
2026-09-21 21:53:11.749145856,2.3673246687394567e-06,7.218869995995192e-06,-1.7227370108230389e-06,5.235021944827167e-06
2026-09-21 21:53:11.750145536,6.78337119097705e-06,5.773618340754183e-06,-8.06578464107588e-06,8.848150173434988e-06
2026-09-21 21:53:11.751145472,-1.4866791389067657e-06,2.5619478947191965e-06,-2.099275661748834e-05,9.97223560261773e-06
2026-09-21 21:53:11.752145408,-3.253097702327068e-06,1.2772803756888607e-06,-1.2401539606798906e-05,1.527149106550496e-05
2026-09-21 21:53:11.753145088,-5.902725206397008e-06,2.4816567929519806e-06,-2.0189838323858567e-05,7.386842071355204e-07
2026-09-21 21:53:11.754145024,-1.3369858606893104e-05,1.4378634887179942e-06,-4.532947968982626e-06,-5.524072093976429e-06
2026-09-21 21:53:11.755144960,-2.075669908663258e-05,-3.6205165088176727e-06,1.0080150786961894e-05,-3.6773617466678843e-06
2026-09-21 21:53:11.756144896,-2.750120620476082e-05,-7.233645192172844e-06,1.1926859770028386e-05,1.4613099210691871e-06
2026-09-21 21:53:11.757144576,-2.3085160137270577e-05,-6.591310921066906e-06,3.3356427593389526e-06,-3.195611498085782e-06
2026-09-21 21:53:11.758144512,-2.0676407075370662e-05,-1.1970858395216055e-05,1.1123943295388017e-05,6.680273600068176e-06
2026-09-21 21:53:11.759144448,-1.706327748252079e-05,-2.289053736603819e-05,1.2480578561735456e-06,-5.042321845394326e-06
2026-09-21 21:53:11.760144128,-9.837021025305148e-06,-2.4416080123046413e-05,-1.5693500245106407e-05,-1.2830621017201338e-05
2026-09-21 21:53:11.761144064,-1.0852204468392301e-06,-2.024090827035252e-05,3.648484039331379e-07,-8.655450074002147e-06
2026-09-21 21:53:11.762144000,4.776077275892021e-06,-1.6386904462706298e-05,1.497794710303424e-05,4.17517298956227e-07
2026-09-21 21:53:11.763143936,3.7322847674658988e-06,-1.0525606739975046e-05,2.445237259962596e-05,-5.443780537461862e-06
2026-09-21 21:53:11.764143616,-3.0122225780360168e-06,-3.1387658054882195e-06,3.649613790912554e-05,-6.487573045887984e-06
2026-09-21 21:53:11.765143552,1.403823716827901e-06,-2.482628644884244e-07,2.870783646358177e-05,-7.451074452546891e-06
2026-09-21 21:53:11.766143488,1.1841750165331177e-05,4.167783572484041e-06,7.350231499003712e-06,4.978089691576315e-07
2026-09-21 21:53:11.767143424,1.601692201802507e-05,9.788206625671592e-06,-7.985493539308663e-06,3.629187176557025e-06
2026-09-21 21:53:11.768143104,1.9870925825671293e-05,1.1956083653785754e-05,-1.6255542504950427e-05,6.519690032291692e-06
2026-09-21 21:53:11.769143040,2.332347139599733e-05,1.653271283430513e-05,-2.8861346436315216e-05,3.870062300848076e-06
2026-09-21 21:53:11.770142976,1.8024215023615398e-05,1.2357541891105939e-05,-1.7379627024638467e-05,-1.4452508878548542e-07
2026-09-21 21:53:11.771142656,1.7060714526451193e-05,1.6050960766733624e-05,1.4889329804645968e-06,-3.757653757929802e-06
2026-09-21 21:53:11.772142592,1.9710341803147458e-05,1.1554623597476166e-05,3.97797703044489e-06,3.4686036087805405e-06
2026-09-21 21:53:11.773142528,2.2119094865047373e-05,7.379453109024325e-06,6.22614606982097e-06,1.021311072690878e-05
2026-09-21 21:53:11.774142464,2.2841719328425825e-05,5.853909442521399e-06,8.313731996167917e-06,5.797064204671187e-06
2026-09-21 21:53:11.775142144,1.4250503227231093e-05,5.3721591939392965e-06,-1.256212271982804e-05,-6.246697921596933e-06
2026-09-21 21:53:11.776142080,8.389205504499841e-06,3.204282165825134e-06,-1.5292042007786222e-05,-1.1080260264861863e-06
2026-09-21 21:53:11.777142016,1.152058393927291e-05,5.211576080910163e-06,-1.778108526195865e-05,4.17517298956227e-07
2026-09-21 21:53:11.778141952,6.703079179715132e-06,1.196988364426943e-06,-1.5532918041571975e-05,-3.757653757929802e-06
2026-09-21 21:53:11.779141632,9.352706001664046e-06,-3.2855487575034203e-07,-3.014601497852709e-05,9.635026998466856e-08
2026-09-21 21:53:11.780141568,1.015562429529382e-05,-6.832186500105308e-06,-3.199272759957239e-05,3.5488953926687827e-06
2026-09-21 21:53:11.781141504,9.432998012925964e-06,-7.715395440754946e-06,-1.2963581866642926e-05,2.505102656868985e-06
2026-09-21 21:53:11.782141184,1.2724960470222868e-05,-1.3335818039195146e-05,9.839274753176142e-06,1.5416017049574293e-06
2026-09-21 21:53:11.783141120,1.095854167942889e-05,-1.8394197468296625e-05,3.127717354800552e-05,5.957647772447672e-06
2026-09-21 21:53:11.784141056,1.1440291928010993e-05,-1.9036531739402562e-05,3.40070910169743e-05,3.372255150679848e-07
2026-09-21 21:53:11.785140992,1.095854167942889e-05,-1.8474489479558542e-05,2.645966742420569e-05,2.505102656868985e-06
2026-09-21 21:53:11.786140672,6.060744908609195e-06,-2.1124116756254807e-05,1.0401317013020162e-05,8.446691936114803e-06
2026-09-21 21:53:11.787140608,4.1337430047860835e-06,-2.361316182941664e-05,-1.2642414731089957e-05,-3.5970701901533175e-06
2026-09-21 21:53:11.788140544,2.3673246687394567e-06,-1.6948946722550318e-05,-1.5693500245106407e-05,-8.735742085264064e-06
2026-09-21 21:53:11.789140224,2.84907537206891e-06,-1.9839450033032335e-05,-7.4234508247172926e-06,2.1839357486896915e-06
2026-09-21 21:53:11.790140160,3.3308256206510123e-06,-1.5423403965542093e-05,1.0240732990496326e-05,-4.881738277617842e-06
2026-09-21 21:53:11.791140096,-1.566970922795008e-06,-6.591310921066906e-06,1.7065533029381186e-05,-1.6604333723080344e-05
2026-09-21 21:53:11.792140032,-9.246369359061646e-07,-7.300135962395871e-07,2.332828807993792e-05,-8.816034096525982e-06
2026-09-21 21:53:11.793139712,2.046157533186488e-06,6.656827736151172e-06,1.7707867300487123e-05,-4.64086269857944e-06
2026-09-21 21:53:11.794139648,5.206142645874934e-07,1.8393226355328807e-06,1.2569194041134324e-05,-3.3561950658622663e-06
2026-09-21 21:53:11.795139584,3.8864040874386774e-08,-6.109560672484804e-06,1.4094736798142549e-05,-2.2321105461742263e-06
2026-09-21 21:53:11.796139520,4.4032273649463605e-07,-8.103051527541538e-07,1.272977806365816e-05,3.067144916713005e-06
2026-09-21 21:53:11.797139200,-1.566970922795008e-06,7.941495823615696e-06,8.875774256011937e-06,1.766420467674834e-07
2026-09-21 21:53:11.798139136,1.72499085238087e-06,6.817410849180305e-06,5.423228685685899e-06,1.3424780263449065e-05
2026-09-21 21:53:11.799139072,1.3235321603133343e-06,-5.694300284631026e-07,2.2918502509128302e-06,3.430063588893972e-05
2026-09-21 21:53:11.800138752,3.3308256206510123e-06,-1.3175234016671311e-05,-6.459949872805737e-06,-1.991235421883175e-06
2026-09-21 21:53:11.801138688,6.622787168453215e-06,-1.831390727602411e-05,-8.386951776628848e-06,-2.29473826038884e-05
2026-09-21 21:53:11.802138624,3.0096584850980435e-06,-1.349640115222428e-05,-1.6576710549998097e-05,1.7824769429353182e-06
2026-09-21 21:53:11.803138560,1.72499085238087e-06,-1.1970858395216055e-05,-2.8299304176471196e-05,1.527149106550496e-05
2026-09-21 21:53:11.804138240,2.9293669285834767e-06,-1.0605898751236964e-05,-2.677376141946297e-05,1.1176611224072985e-05
2026-09-21 21:53:11.805138176,-2.5304718747065635e-06,-9.321230209025089e-06,-1.392708236380713e-05,9.635026998466856e-08
2026-09-21 21:53:11.806138112,-4.9392242544854525e-06,-5.868685548193753e-06,-1.224095558427507e-05,-1.676491774560418e-05
2026-09-21 21:53:11.807138048,-2.77134722637129e-06,-9.00006307347212e-06,-3.5766439395956695e-05,-1.4291929346654797e-06
2026-09-21 21:53:11.808137728,-7.347976861638017e-06,5.532743216463132e-06,-5.262770355329849e-05,1.3007264669795404e-06
2026-09-21 21:53:11.809137664,-1.0318772183381952e-05,7.6203282333153766e-06,-4.347444337327033e-05,3.789770516959834e-06
2026-09-21 21:53:11.810137600,-6.6253510340175126e-06,-5.627809969155351e-06,-1.834312752180267e-05,-3.0350279303092975e-06
2026-09-21 21:53:11.811137280,-9.114395652431995e-06,-4.89138017201185e-07,1.8831951820175163e-05,-9.474424587097019e-07
2026-09-21 21:53:11.812137216,-5.099807822261937e-06,7.299161097762408e-06,4.356180943432264e-05,-2.7941528060182463e-06
2026-09-21 21:53:11.813137152,-1.4063873550185235e-06,1.7175045286421664e-05,4.80581475130748e-05,-4.480279585550306e-06
2026-09-21 21:53:11.814137088,-5.902725206397008e-06,1.0671415111573879e-05,5.2153027354506776e-05,-2.9547363737947308e-06
2026-09-21 21:53:11.815136768,-1.7275544905714924e-06,9.547330591885839e-06,4.107276618015021e-05,1.2204346830912982e-06
2026-09-21 21:53:11.816136704,-1.2458040146157146e-06,6.415951702365419e-06,1.746699126670137e-05,-6.423329779181586e-08
2026-09-21 21:53:11.817136640,2.2067411009629723e-06,1.1233457371417899e-05,2.1312671378836967e-06,8.125524800561834e-06
2026-09-21 21:53:11.818136320,5.2578275244741235e-06,2.0948758901795372e-05,-5.986520932310668e-07,1.3424780263449065e-05
2026-09-21 21:53:11.819136256,-8.443453793915978e-07,2.2233425625017844e-05,-3.087696768488968e-06,1.246127976628486e-05
2026-09-21 21:53:11.820136192,-1.7275544905714924e-06,1.8780880054691806e-05,-9.912495443131775e-06,-7.868588909332175e-07
2026-09-21 21:53:11.821136128,-5.742142093367875e-06,4.890408945357194e-06,-2.87810544250533e-05,1.0598512290016515e-06
2026-09-21 21:53:11.822135808,-2.129013182639028e-06,-8.357729711860884e-06,-2.629201117088087e-05,-7.531365554314107e-06
2026-09-21 21:53:11.823135744,-2.0201107986395073e-07,-3.219057816750137e-06,-1.481029175920412e-05,2.569337311797426e-07
2026-09-21 21:53:11.824135680,-3.1728059184388258e-06,1.4378634887179942e-06,8.233439984906e-06,4.432104560692096e-06
2026-09-21 21:53:11.825135616,1.72499085238087e-06,5.613034318230348e-06,2.3569165932713076e-05,-7.2904904300230555e-06
2026-09-21 21:53:11.826135296,5.016952400183072e-06,6.897702860442223e-06,3.183921580784954e-05,-5.764947673014831e-06
2026-09-21 21:53:11.827135232,6.78337119097705e-06,8.021787834877614e-06,2.9350168915698305e-05,-9.940118616214022e-06
2026-09-21 21:53:11.828135168,1.2724960470222868e-05,6.977993962209439e-06,2.252537160529755e-05,-8.671506748214597e-07
2026-09-21 21:53:11.829134848,5.498702648765175e-06,2.1604896573990118e-06,1.6262614735751413e-05,7.322607416426763e-06
2026-09-21 21:53:11.830134784,8.389205504499841e-06,-4.89138017201185e-07,6.788189239159692e-06,-6.423329779181586e-08
2026-09-21 21:53:11.831134720,7.5059965638502035e-06,8.342954060935881e-06,8.474314199702349e-06,-1.4597039807995316e-05
2026-09-21 21:53:11.832134656,1.8855744201573543e-06,4.890408945357194e-06,9.999858775699977e-06,-8.334282938449178e-06
2026-09-21 21:53:11.833134336,2.608199793030508e-06,1.2277249879844021e-05,-2.8468216441979166e-06,-2.7138607947563287e-06
2026-09-21 21:53:11.834134272,-3.33338948621531e-06,-3.2855487575034203e-07,-2.5328510673716664e-05,-4.399987574288389e-06
2026-09-21 21:53:11.835134208,6.811978323639778e-07,-2.0146812858001795e-06,-3.448177085374482e-05,2.569337311797426e-07
2026-09-21 21:53:11.836134144,-2.9319307941477746e-06,-4.89138017201185e-07,-3.72116883227136e-05,4.432104560692096e-06
2026-09-21 21:53:11.837133824,-1.004928662950988e-06,-1.0365023626945913e-05,-3.970073157688603e-05,3.147436700601247e-06
2026-09-21 21:53:11.838133760,-2.77134722637129e-06,-1.4219027434592135e-05,-4.194890061626211e-05,2.023352180913207e-06
2026-09-21 21:53:11.839133696,-6.464767466241028e-06,-3.6205165088176727e-06,-2.3080341634340584e-05,1.165836238214979e-05
2026-09-21 21:53:11.840133376,-6.946518169570481e-06,3.4451572901161853e-06,4.7808944145799614e-06,2.585394440757227e-06
2026-09-21 21:53:11.841133312,-2.9319307941477746e-06,1.7737087546265684e-05,3.07151312881615e-05,8.446691936114803e-06
2026-09-21 21:53:11.842133248,-1.4063873550185235e-06,2.721151577134151e-05,3.408738484722562e-05,5.315313956089085e-06
2026-09-21 21:53:11.843133184,-1.8881378309743013e-06,3.235018812119961e-05,2.4934124667197466e-05,2.4248108729807427e-06
2026-09-21 21:53:11.844132864,2.1264495444484055e-06,2.4561888494645245e-05,1.6664074792061e-05,5.074438377050683e-06
2026-09-21 21:53:11.845132800,3.651992756203981e-06,1.7496213331469335e-05,4.058269041706808e-06,-5.459837666421663e-07
2026-09-21 21:53:11.846132736,-1.8078462744597346e-06,1.3642210433317814e-05,-7.4234508247172926e-06,-2.7138607947563287e-06
2026-09-21 21:53:11.847132416,-3.975723302573897e-06,1.4766294953005854e-05,-3.4642354876268655e-05,-3.3561950658622663e-06
2026-09-21 21:53:11.848132352,4.615493253368186e-06,9.467038580623921e-06,-6.057658902136609e-05,3.2277284844894893e-06
2026-09-21 21:53:11.849132288,5.739577773056226e-06,1.0430539077788126e-05,-5.720433546230197e-05,2.3445190890925005e-06
2026-09-21 21:53:11.850132224,-1.6472627066832501e-06,1.1313749382679816e-05,-2.9503680707421154e-05,-4.881738277617842e-06
2026-09-21 21:53:11.851131904,-2.6107636585948057e-06,-7.300135962395871e-07,-1.842341953306459e-05,-3.918237325706286e-06
2026-09-21 21:53:11.852131840,-3.4939730539917946e-06,9.561132401358918e-07,1.5700572475907393e-05,6.599982043553609e-06
2026-09-21 21:53:11.853131776,2.3673246687394567e-06,1.5984475112418295e-06,5.287565363687463e-05,3.950354312109994e-06
2026-09-21 21:53:11.854131712,6.3819120441621635e-06,7.290427106454445e-08,7.76055094320327e-05,3.147436700601247e-06
2026-09-21 21:53:11.855131392,5.65928667128901e-06,4.2480746742512565e-06,6.411649519577622e-05,3.870062300848076e-06
2026-09-21 21:53:11.856131328,1.0826565812749323e-06,5.532743216463132e-06,3.545234358171001e-05,-3.3561950658622663e-06
2026-09-21 21:53:11.857131264,-1.8881378309743013e-06,2.080197646137094e-06,1.9706831153598614e-06,-2.3926941139507107e-06
2026-09-21 21:53:11.858130944,-3.6259464764043514e-07,-5.306643288349733e-06,-2.0511006368906237e-05,2.023352180913207e-06
2026-09-21 21:53:11.859130880,4.1337430047860835e-06,-4.343141881690826e-06,-2.460588439134881e-05,1.2204346830912982e-06
2026-09-21 21:53:11.860130816,-2.4501800908183213e-06,-1.5824862202862278e-05,-1.3525624126486946e-05,-9.474424587097019e-07
2026-09-21 21:53:11.861130752,1.9944761220358487e-07,-2.0481784304138273e-05,1.690494900685735e-05,-5.524072093976429e-06
2026-09-21 21:53:11.862130432,1.0023650247603655e-06,-7.635103429493029e-06,2.0999828848289326e-05,-2.5532772269798443e-06
2026-09-21 21:53:11.863130368,1.72499085238087e-06,9.561132401358918e-07,1.730640906316694e-05,5.556189080380136e-06
2026-09-21 21:53:11.864130304,3.651992756203981e-06,5.613034318230348e-06,2.067866262223106e-05,2.1036439648014493e-06
2026-09-21 21:53:11.865130240,3.089950496359961e-06,1.5488918506889604e-05,5.3429366744239815e-06,3.147436700601247e-06
2026-09-21 21:53:11.866129920,4.4032273649463605e-07,6.415951702365419e-06,-2.9271132007124834e-06,-7.531365554314107e-06
2026-09-21 21:53:11.867129856,2.9293669285834767e-06,-4.182558768661693e-06,-3.078834924963303e-05,-1.1706536497513298e-05
2026-09-21 21:53:11.868129792,1.6446988411189523e-06,-8.357729711860884e-06,-3.448177085374482e-05,-2.633569238241762e-06
2026-09-21 21:53:11.869129472,1.2432401490514167e-06,-2.786862569337245e-05,-4.459852789295837e-05,-1.509484718553722e-06
2026-09-21 21:53:11.870129408,6.703079179715132e-06,-4.175909634795971e-05,-4.764961704495363e-05,-1.3232079254521523e-05
2026-09-21 21:53:11.871129344,-3.7348481782828458e-06,-3.42116727551911e-05,-4.4919695938006043e-05,-8.57515897223493e-06
2026-09-21 21:53:11.872129280,-2.3698885343037546e-06,-2.7386873625800945e-05,-4.2430652683833614e-05,-1.509484718553722e-06
2026-09-21 21:53:11.873128960,-8.873520528140943e-06,-1.2773775779351126e-05,-2.171538108086679e-05,2.3445190890925005e-06
2026-09-21 21:53:11.874128896,-3.0122225780360168e-06,4.7436296313208004e-07,3.4159347706008703e-06,3.4686036087805405e-06
2026-09-21 21:53:11.875128832,-6.14360078543541e-06,1.6050960766733624e-05,3.3846506994450465e-05,3.372255150679848e-07
2026-09-21 21:53:11.876128512,-5.180099833523855e-06,1.8138547602575272e-05,2.9751630790997297e-05,5.1547303883126006e-06
2026-09-21 21:53:11.877128448,-4.296890438126866e-06,1.9985256585641764e-05,-3.7300305848475546e-06,2.505102656868985e-06
2026-09-21 21:53:11.878128384,-1.8881378309743013e-06,1.8299129806109704e-05,-2.621171915961895e-05,4.913855264021549e-06
2026-09-21 21:53:11.879128320,1.72499085238087e-06,1.0510831089050043e-05,-2.211684113717638e-05,2.7459780085337115e-06
2026-09-21 21:53:11.880128000,3.651992756203981e-06,6.335660600598203e-06,-2.5810260922298767e-05,2.1036439648014493e-06
2026-09-21 21:53:11.881127936,1.8855744201573543e-06,1.0189664862991776e-05,-8.948994036472868e-06,3.372255150679848e-07
2026-09-21 21:53:11.882127872,-7.640533681296802e-07,1.1313749382679816e-05,3.713847036124207e-05,-3.3561950658622663e-06
2026-09-21 21:53:11.883127808,4.6957852646301035e-06,1.2357541891105939e-05,3.0554547265637666e-05,-3.837945314444369e-06
2026-09-21 21:53:11.884127488,2.527908236515941e-06,7.540036222053459e-06,2.4612956622149795e-05,1.0598512290016515e-06
2026-09-21 21:53:11.885127424,3.1702425076218788e-06,1.3575723869507783e-06,3.007279519806616e-05,1.702185159047076e-06
2026-09-21 21:53:11.886127360,3.7322847674658988e-06,5.546544912249374e-07,4.4846477976534516e-05,1.0694860975490883e-05
2026-09-21 21:53:11.887127040,-1.1655122307274723e-06,2.7225319172430318e-06,4.9342816055286676e-05,6.840857167844661e-06
2026-09-21 21:53:11.888126976,7.614898436258954e-07,8.664122105983552e-06,6.162744830362499e-05,9.795594451134093e-07
2026-09-21 21:53:11.889126912,-8.231186257035006e-06,1.1072873348894063e-05,5.054719076724723e-05,2.023352180913207e-06
2026-09-21 21:53:11.890126848,-4.3771819946414325e-06,1.531958275791112e-07,6.740845856256783e-05,-1.0582451977825258e-05
2026-09-21 21:53:11.891126528,1.4841152733424678e-06,-4.503725449467311e-06,7.656171510461718e-05,-8.896325198293198e-06
2026-09-21 21:53:11.892126464,6.78337119097705e-06,-3.1387658054882195e-06,6.829166522948071e-05,-4.239404006511904e-06
2026-09-21 21:53:11.893126400,9.673873137217015e-06,7.152380590014218e-07,4.548881042865105e-05,-2.874444362532813e-06
2026-09-21 21:53:11.894126080,7.024246315268101e-06,-5.146059720573248e-06,1.1685985555232037e-05,3.629187176557025e-06
2026-09-21 21:53:11.895126016,4.615493253368186e-06,4.488949798542308e-06,-2.8861346436315216e-05,2.505102656868985e-06
2026-09-21 21:53:11.896125952,6.78337119097705e-06,3.204282165825134e-06,-5.6160541134886444e-05,3.5488953926687827e-06
2026-09-21 21:53:11.897125888,2.2067411009629723e-06,2.080197646137094e-06,-7.09342275513336e-05,8.366399924852885e-06
2026-09-21 21:53:11.898125568,-7.640533681296802e-07,3.1239901545632165e-06,-7.543056563008577e-05,7.483190984203247e-06
2026-09-21 21:53:11.899125504,4.1337430047860835e-06,4.087491561222123e-06,-6.314592610578984e-05,-1.3489011507772375e-06
2026-09-21 21:53:11.900125440,2.2067411009629723e-06,-7.394228759949328e-06,-5.945250450167805e-05,-4.801446266355924e-06
2026-09-21 21:53:11.901125376,1.6446988411189523e-06,-1.2051149496983271e-05,-4.259123670635745e-05,-5.845238774782047e-06
2026-09-21 21:53:11.902125056,4.294327027309919e-06,-1.068618985300418e-05,-5.792695810669102e-05,-2.9547363737947308e-06
2026-09-21 21:53:11.903124992,6.78337119097705e-06,-4.182558768661693e-06,-6.683934770990163e-05,-3.0350279303092975e-06
2026-09-21 21:53:11.904124928,7.5059965638502035e-06,-2.5767235456441995e-06,-4.740873919217847e-05,-3.918237325706286e-06
2026-09-21 21:53:11.905124608,5.338119535736041e-06,8.758211720305553e-07,-2.460588439134881e-05,3.308020041004056e-06
2026-09-21 21:53:11.906124544,4.936660388921155e-06,1.9196145331079606e-06,9.196940482070204e-06,1.0052526704384945e-05
2026-09-21 21:53:11.907124480,3.1702425076218788e-06,6.737118837918388e-06,4.0671307942830026e-05,-1.4291929346654797e-06
2026-09-21 21:53:11.908124416,8.417814001404622e-07,4.087491561222123e-06,6.933545955689624e-05,9.635026998466856e-08
2026-09-21 21:53:11.909124096,-3.0925141345505835e-06,4.890408945357194e-06,8.788285049377009e-05,1.5753241314087063e-05
2026-09-21 21:53:11.910124032,2.84907537206891e-06,1.5810086551937275e-05,3.7218760553514585e-05,1.7840826330939308e-05
2026-09-21 21:53:11.911123968,2.046157533186488e-06,-1.4526389122693217e-06,-7.173714402597398e-05,-1.0662743989087176e-05
2026-09-21 21:53:11.912123904,7.104538326530019e-06,-8.277437700598966e-06,-5.6160541134886444e-05,-1.4757623830519151e-05
2026-09-21 21:53:11.913123584,3.8125758692331146e-06,-1.0365023626945913e-05,-1.3766499250777997e-05,-1.1064203135902062e-05
2026-09-21 21:53:11.914123520,5.578994660027092e-06,-4.744601028505713e-06,-9.198192287840357e-07,-7.691949576837942e-06
2026-09-21 21:53:11.915123456,6.060744908609195e-06,3.846616436931072e-06,1.0722483239078429e-05,1.4613099210691871e-06
2026-09-21 21:53:11.916123136,6.542496066685999e-06,5.3721591939392965e-06,2.1320995074347593e-05,9.731359568831977e-06
2026-09-21 21:53:11.917123072,4.374618129077135e-06,1.2437833902367856e-05,1.1685985555232037e-05,-2.874444362532813e-06
2026-09-21 21:53:11.918123008,3.97315989175695e-06,1.3722502444579732e-05,2.934184522018768e-06,3.950354312109994e-06
2026-09-21 21:53:11.919122944,9.432998012925964e-06,-1.6132224800458062e-06,2.6861125661525875e-05,6.037939783709589e-06
2026-09-21 21:53:11.920122624,1.0235915397061035e-05,-1.2051149496983271e-05,1.9634868294815533e-05,1.551236528030131e-05
2026-09-21 21:53:11.921122560,9.513290024187881e-06,-1.7671573004918173e-05,3.938663940061815e-05,-6.423329779181586e-08
2026-09-21 21:53:11.922122496,3.5717007449420635e-06,-2.9715334676438943e-05,3.344504875713028e-05,-1.4677331819257233e-05
2026-09-21 21:53:11.923122176,2.7687833608069923e-06,-3.75036324840039e-05,6.145854058559053e-06,-5.20290495842346e-06
2026-09-21 21:53:11.924122112,6.00906275849411e-07,-3.332846245029941e-05,1.2480578561735456e-06,-3.5167786336387508e-06
2026-09-21 21:53:11.925122048,3.892867880495032e-06,-1.6386904462706298e-05,1.4737071069248486e-05,1.1401430128898937e-06
2026-09-21 21:53:11.926121984,3.3308256206510123e-06,-3.2855487575034203e-07,2.702170968404971e-05,2.505102656868985e-06
2026-09-21 21:53:11.927121664,6.811978323639778e-07,-2.416140432615066e-06,1.087474743144412e-06,6.359106464515207e-06
2026-09-21 21:53:11.928121600,4.1337430047860835e-06,7.0582859734713566e-06,-2.2518299374496564e-05,2.9065613489365205e-06
2026-09-21 21:53:11.929121536,5.418411546997959e-06,1.2196957868582103e-05,-1.336504010396311e-05,-2.3926941139507107e-06
2026-09-21 21:53:11.930121472,-6.837618116151134e-07,1.3722502444579732e-05,-5.094990228826646e-06,-1.4291929346654797e-06
2026-09-21 21:53:11.931121152,1.9944761220358487e-07,2.0788174879271537e-05,2.782462615869008e-05,-2.312402102688793e-06
2026-09-21 21:53:11.932121088,4.214035016048001e-06,1.9503506337059662e-05,5.030631655245088e-05,-3.1153194868238643e-06
2026-09-21 21:53:11.933121024,2.046157533186488e-06,1.6050960766733624e-05,2.164216130040586e-05,3.4686036087805405e-06
2026-09-21 21:53:11.934120704,3.97315989175695e-06,1.0751707122835796e-05,1.0561901035543997e-05,-4.480279585550306e-06
2026-09-21 21:53:11.935120640,4.53520215160097e-06,1.1715207620000001e-05,4.4514041519505554e-07,-7.611657565576024e-06
2026-09-21 21:53:11.936120576,3.0096584850980435e-06,2.496334673196543e-05,-2.6059460651595145e-06,1.1401430128898937e-06
2026-09-21 21:53:11.937120512,2.527908236515941e-06,2.6810057534021325e-05,-1.649641853873618e-05,2.2642275325779337e-06
2026-09-21 21:53:11.938120192,2.1264495444484055e-06,1.1233457371417899e-05,-3.416060280869715e-05,5.395605512603652e-06
2026-09-21 21:53:11.939120128,-3.1728059184388258e-06,4.970700956619112e-06,-2.733580367930699e-05,5.781007530458737e-07
2026-09-21 21:53:11.940120064,-3.89543174605933e-06,-4.503725449467311e-06,-1.6897876776056364e-05,3.2277284844894893e-06
2026-09-21 21:53:11.941120000,-7.187393293861533e-06,-6.189852228999371e-06,-3.014601497852709e-05,2.4248108729807427e-06
2026-09-21 21:53:11.942119680,-4.216598881612299e-06,-1.5329309235312394e-06,-4.572261241264641e-05,9.008734195958823e-06
2026-09-21 21:53:11.943119616,-2.691055442483048e-06,-5.708101980417268e-06,-4.7810201067477465e-05,6.359106464515207e-06
2026-09-21 21:53:11.944119552,-1.2458040146157146e-06,-6.992769613134442e-06,-4.2189778469037265e-05,-5.684655661752913e-06
2026-09-21 21:53:11.945119232,1.8052824088954367e-06,-1.1314722314637038e-06,-2.6613177396939136e-05,-3.998528882220853e-06
2026-09-21 21:53:11.946119168,6.00906275849411e-07,-2.175264853576664e-06,-2.0350422346382402e-05,3.789770516959834e-06
2026-09-21 21:53:11.947119104,-2.691055442483048e-06,4.569241809804225e-06,-1.4729999747942202e-05,1.944666109920945e-05
2026-09-21 21:53:11.948119040,-5.23178243838629e-07,7.218869995995192e-06,4.299144165997859e-06,-3.5970701901533175e-06
2026-09-21 21:53:11.949118720,-9.246369359061646e-07,3.204282165825134e-06,3.2160380214918405e-05,-1.2750329915434122e-05
2026-09-21 21:53:11.950118656,-2.691055442483048e-06,-1.8540980590842082e-06,5.0707774789771065e-05,1.1401430128898937e-06
2026-09-21 21:53:11.951118592,-7.749436008452903e-06,7.290427106454445e-08,3.3846506994450465e-05,-6.407281034626067e-06
2026-09-21 21:53:11.952118272,-9.917313036567066e-06,-6.5110193645523395e-06,-6.138783192000119e-06,4.17517298956227e-07
2026-09-21 21:53:11.953118208,-9.274978765461128e-06,-5.627809969155351e-06,-6.789441044929845e-07,-1.0020409717981238e-05
2026-09-21 21:53:11.954118144,-3.89543174605933e-06,-8.036562576307915e-06,-1.898546179290861e-05,-1.1385369361960329e-05
2026-09-21 21:53:11.955118080,-9.194687663693912e-06,-7.394228759949328e-06,-3.3759144571376964e-05,-1.9109434106212575e-06
2026-09-21 21:53:11.956117760,-1.1362564691808075e-05,-1.831390727602411e-05,-3.8255482650129125e-05,-1.0502160876058042e-05
2026-09-21 21:53:11.957117696,-1.0720230420702137e-05,-2.6102206902578473e-05,-4.23503624915611e-05,-8.976617209555116e-06
2026-09-21 21:53:11.958117632,-6.545059477502946e-06,-1.6226320440182462e-05,-2.380296791670844e-05,-1.3151788152754307e-05
2026-09-21 21:53:11.959117568,-3.89543174605933e-06,-9.722689355839975e-06,6.627605216635857e-06,-4.07882043873542e-06
2026-09-21 21:53:11.960117248,-3.4136812701035524e-06,5.613034318230348e-06,5.9861031331820413e-05,-2.9547363737947308e-06
2026-09-21 21:53:11.961117184,3.2505336093890946e-06,2.4481594664393924e-05,8.162009180523455e-05,2.3445190890925005e-06
2026-09-21 21:53:11.962117120,4.214035016048001e-06,3.202902007615194e-05,0.0001277878473047167,5.235021944827167e-06
2026-09-21 21:53:11.963116800,1.2162918210378848e-05,1.597067057446111e-05,8.587555930716917e-05,6.118231340224156e-06
2026-09-21 21:53:11.964116736,1.320671071880497e-05,9.707914614409674e-06,3.97797703044489e-06,8.52698394737672e-06
2026-09-21 21:53:11.965116672,8.389205504499841e-06,4.087491561222123e-06,-5.4474414355354384e-05,4.913855264021549e-06
2026-09-21 21:53:11.966116608,1.1038833690690808e-05,5.773618340754183e-06,-8.63502427819185e-05,-1.027734242597944e-06
2026-09-21 21:53:11.967116288,1.0235915397061035e-05,1.0430539077788126e-05,-7.671523053431883e-05,-5.042321845394326e-06
2026-09-21 21:53:11.968116224,1.095854167942889e-05,1.1795499631261919e-05,-5.037953451392241e-05,1.605848609642635e-08
2026-09-21 21:53:11.969116160,9.031539775605779e-06,7.941495823615696e-06,-5.832841998199001e-05,3.308020041004056e-06
2026-09-21 21:53:11.970116096,3.8864040874386774e-08,6.817410849180305e-06,-3.6569355870597064e-05,-8.671506748214597e-07
2026-09-21 21:53:11.971115776,-6.464767466241028e-06,-4.905184141534846e-06,-2.9985430956003256e-05,-3.854001988656819e-07
2026-09-21 21:53:11.972115712,-5.340682946552988e-06,-1.2693483768089209e-05,-3.660982628161946e-08,4.110937425139127e-06
2026-09-21 21:53:11.973115648,-8.472061381326057e-06,-1.9759158021770418e-05,3.81822646886576e-05,4.672979684983147e-06
2026-09-21 21:53:11.974115328,-3.6545563943946036e-06,-1.8474489479558542e-05,5.2955943829147145e-05,3.147436700601247e-06
2026-09-21 21:53:11.975115264,-1.004928662950988e-06,-1.2613191756827291e-05,4.8459605750394985e-05,4.5926881284685805e-06
2026-09-21 21:53:11.976115200,1.403823716827901e-06,-7.313936748687411e-06,3.6174969864077866e-05,5.877356215933105e-06
2026-09-21 21:53:11.977115136,1.0878249668166973e-05,-1.40584434120683e-05,5.4722364438930526e-05,4.672979684983147e-06
2026-09-21 21:53:11.978114816,1.2162918210378848e-05,-4.343141881690826e-06,5.8094617997994646e-05,4.351813004177529e-06
2026-09-21 21:53:11.979114752,1.1038833690690808e-05,-8.197145689337049e-06,3.039396324311383e-05,4.672979684983147e-06
2026-09-21 21:53:11.980114688,1.208262619911693e-05,-1.1649691259663086e-05,-3.087696768488968e-06,1.766420467674834e-07
2026-09-21 21:53:11.981114368,1.1119125701952726e-05,-1.2693483768089209e-05,-2.5569384888513014e-05,-4.399987574288389e-06
2026-09-21 21:53:11.982114304,1.2002334187855013e-05,1.8393226355328807e-06,-2.966426472994499e-05,-2.248166453000522e-07
2026-09-21 21:53:11.983114240,9.593582035449799e-06,1.2277249879844021e-05,-4.0744525904301554e-05,7.884649676270783e-06
2026-09-21 21:53:11.984114176,7.425704552588286e-06,1.4123960681899916e-05,-3.0627765227109194e-05,-5.042321845394326e-06
2026-09-21 21:53:11.985113856,1.4841152733424678e-06,1.2437833902367856e-05,-3.978102540713735e-05,-1.7086083971662447e-05
2026-09-21 21:53:11.986113792,3.892867880495032e-06,-4.8248925850202795e-06,-1.4649708646174986e-05,-2.9547363737947308e-06
2026-09-21 21:53:11.987113728,1.72499085238087e-06,-2.5540164642734453e-05,-1.1277455087110866e-05,-1.1080260264861863e-06
2026-09-21 21:53:11.988113664,2.3673246687394567e-06,-1.7270112948608585e-05,-3.897810893249698e-05,5.781007530458737e-07
2026-09-21 21:53:11.989113344,4.1337430047860835e-06,3.940709518701624e-07,-4.2671526898629963e-05,2.1036439648014493e-06
2026-09-21 21:53:11.990113280,-2.9319307941477746e-06,7.218869995995192e-06,-1.224095558427507e-05,9.169317308987956e-06
2026-09-21 21:53:11.991113216,-5.822433649882441e-06,9.30645637708949e-06,4.918223203276284e-05,2.6656862246454693e-06
2026-09-21 21:53:11.992112896,-3.1728059184388258e-06,1.4926877156540286e-05,9.310181485489011e-05,1.5416017049574293e-06
2026-09-21 21:53:11.993112832,-3.975723302573897e-06,2.0065548596903682e-05,0.0001010506966849789,-3.757653757929802e-06
2026-09-21 21:53:11.994112768,1.0826565812749323e-06,2.1591091353911906e-05,7.929163257358596e-05,-8.57515897223493e-06
2026-09-21 21:53:11.995112704,-8.443453793915978e-07,1.7415921320207417e-05,3.312388435006142e-05,-4.1591124499973375e-06
2026-09-21 21:53:11.996112384,8.14833038020879e-06,1.613125277799554e-05,-2.0832172594964504e-05,7.884649676270783e-06
2026-09-21 21:53:11.997112320,9.432998012925964e-06,1.0269956874253694e-05,-4.259123670635745e-05,-7.691949576837942e-06
2026-09-21 21:53:11.998112256,8.308913493237924e-06,-3.6205165088176727e-06,-4.9175159801961854e-05,2.7459780085337115e-06
2026-09-21 21:53:11.999112192,5.177535513212206e-06,-9.240939107257873e-06,-4.3233569158473983e-05,8.992677749120048e-07
2026-09-21 21:53:12.000111872,1.9710341803147458e-05,-1.0927064977295231e-05,-2.685405343072489e-05,-7.691949576837942e-06
2026-09-21 21:53:12.001111808,1.7622756786295213e-05,-6.270144240261288e-06,-3.1751849746797234e-05,-3.0350279303092975e-06
2026-09-21 21:53:12.002111744,1.5776045984239317e-05,6.576535724889254e-06,-1.8262837329530157e-05,4.0306458686245605e-06
2026-09-21 21:53:12.003111424,1.063737363438122e-05,1.1715207620000001e-05,-1.4167957488098182e-05,2.7459780085337115e-06
2026-09-21 21:53:12.004111360,1.2162918210378848e-05,1.3240750377008226e-05,4.379436177259777e-06,6.198523351486074e-06
2026-09-21 21:53:12.005111296,1.0797957656905055e-05,1.4605710930482019e-05,8.956066267273854e-06,7.242315859912196e-06
2026-09-21 21:53:12.006111232,8.469497515761759e-06,2.2474301658803597e-05,1.2328319826337975e-05,-6.648156158917118e-06
2026-09-21 21:53:12.007110912,7.184829428297235e-06,2.8977932743146084e-05,2.1481579096871428e-05,-4.801446266355924e-06
2026-09-21 21:53:12.008110848,3.7322847674658988e-06,2.7853848223458044e-05,3.53720533894375e-05,-3.1153194868238643e-06
2026-09-21 21:53:12.009110784,4.776077275892021e-06,1.1875791642523836e-05,4.7977857320802286e-05,-7.772240678605158e-06
2026-09-21 21:53:12.010110464,-3.975723302573897e-06,5.050992058386328e-06,2.2685955627821386e-05,-7.065673344186507e-07
2026-09-21 21:53:12.011110400,-5.099807822261937e-06,-5.3869348448642995e-06,-9.198192287840357e-07,8.366399924852885e-06
2026-09-21 21:53:12.012110336,-1.9684296148625435e-06,-1.1007356988557149e-05,8.233439984906e-06,-9.297784345108084e-06
2026-09-21 21:53:12.013110272,-1.004928662950988e-06,-1.2693483768089209e-05,-5.657032488670666e-06,-6.808740181440953e-06
2026-09-21 21:53:12.014109952,3.41111763191293e-06,-1.7350404959870502e-05,-2.3321217668126337e-05,1.605848609642635e-08
2026-09-21 21:53:12.015109888,-6.034698003531958e-07,-2.4416080123046413e-05,-2.1073048628750257e-05,-2.071526978397742e-06
2026-09-21 21:53:12.016109824,5.980453806841979e-06,-2.0562074496410787e-05,-6.459949872805737e-06,-7.691949576837942e-06
2026-09-21 21:53:12.017109760,8.630080628790893e-06,-7.635103429493029e-06,-1.593437627889216e-05,4.351813004177529e-06
2026-09-21 21:53:12.018109440,7.827163244655821e-06,-1.2773775779351126e-05,-7.343159268202726e-06,9.008734195958823e-06
2026-09-21 21:53:12.019109376,1.2432401490514167e-06,-1.743069697113242e-05,3.5765187931247056e-06,1.943060397024965e-06
2026-09-21 21:53:12.020109312,-3.1728059184388258e-06,-1.3255526027933229e-05,2.2123913367977366e-05,3.2277284844894893e-06
2026-09-21 21:53:12.021108992,-5.58155852559139e-06,-9.401522220287006e-06,1.9634868294815533e-05,4.351813004177529e-06
2026-09-21 21:53:12.022108928,-4.858932697970886e-06,-3.5402247249294305e-06,-1.4890583770466037e-05,1.2204346830912982e-06
2026-09-21 21:53:12.023108864,-9.435562787984964e-06,1.2437833902367856e-05,-3.9620441384613514e-05,-5.524072093976429e-06
2026-09-21 21:53:12.024108800,-6.464767466241028e-06,2.3919552404549904e-05,-6.210213177837431e-05,-1.1080260264861863e-06
2026-09-21 21:53:12.025108480,-2.77134722637129e-06,1.3481626410793979e-05,-5.800725193694234e-05,1.3007264669795404e-06
2026-09-21 21:53:12.026108416,-3.253097702327068e-06,1.9102048099739477e-05,-5.431383033283055e-05,-3.757653757929802e-06
2026-09-21 21:53:12.027108352,7.614898436258954e-07,1.0510831089050043e-05,-3.7452566175488755e-05,-8.334282938449178e-06
2026-09-21 21:53:12.028108288,2.28703311222489e-06,5.853909442521399e-06,-9.75191142060794e-06,-5.363488526199944e-06
2026-09-21 21:53:12.029107968,4.776077275892021e-06,-1.2117637879782706e-06,1.3283498674354632e-06,-1.6700682863302063e-06
2026-09-21 21:53:12.030107904,1.72499085238087e-06,-7.715395440754946e-06,2.4934124667197466e-05,5.797064204671187e-06
2026-09-21 21:53:12.031107840,2.1264495444484055e-06,-1.1167941011080984e-05,7.102158269844949e-05,1.109632012230577e-05
2026-09-21 21:53:12.032107520,6.863662292744266e-06,-2.080295053019654e-05,0.00010402149200672284,-3.436486622376833e-06
2026-09-21 21:53:12.033107456,-3.6259464764043514e-07,-4.0313843783224e-05,5.006544233765453e-05,-5.524072093976429e-06
2026-09-21 21:53:12.034107392,6.00906275849411e-07,-5.4204316256800666e-05,2.8306378226261586e-05,-7.370782441284973e-06
2026-09-21 21:53:12.035107328,5.016952400183072e-06,-4.159851232543588e-05,2.172245513065718e-05,-5.684655661752913e-06
2026-09-21 21:53:12.036107008,7.425704552588286e-06,-2.0883242541458458e-05,3.96275136154145e-05,5.235021944827167e-06
2026-09-21 21:53:12.037106944,6.703079179715132e-06,4.2480746742512565e-06,3.4167675039498135e-05,6.599982043553609e-06
2026-09-21 21:53:12.038106880,6.060744908609195e-06,2.1109341105329804e-05,1.9393994080019183e-05,-2.4729856704652775e-06
2026-09-21 21:53:12.039106560,5.498702648765175e-06,4.8809997679200023e-05,5.9049789342680015e-06,5.7167726481566206e-06
2026-09-21 21:53:12.040106496,6.00906275849411e-07,4.511657607508823e-05,1.8101001160175656e-06,8.848150173434988e-06
2026-09-21 21:53:12.041106432,6.542496066685999e-06,2.825530646077823e-05,-4.652553252526559e-05,-5.684655661752913e-06
2026-09-21 21:53:12.042106368,7.34541345082107e-06,1.2919584150949959e-05,-7.952544547151774e-05,5.781007530458737e-07
2026-09-21 21:53:12.043106048,-2.129013182639028e-06,1.564950252941344e-05,-7.358385482802987e-05,-1.2686093668889953e-06
2026-09-21 21:53:12.044105984,6.9439543040061835e-06,1.8138547602575272e-05,-5.720433546230197e-05,-2.9547363737947308e-06
2026-09-21 21:53:12.045105920,5.8198697843181435e-06,1.5890378563199192e-05,-5.2306539146229625e-05,-7.611657565576024e-06
2026-09-21 21:53:12.046105856,1.1119125701952726e-05,5.452451205201214e-06,-2.9824848752468824e-05,-6.246697921596933e-06
2026-09-21 21:53:12.047105536,6.301620032900246e-06,7.299161097762408e-06,-1.7540211047162302e-05,-4.962029834132409e-06
2026-09-21 21:53:12.048105472,1.1915559383623986e-07,2.1604896573990118e-06,1.0071827318824944e-06,-1.509484718553722e-06
2026-09-21 21:53:12.049105408,-6.837618116151134e-07,-2.4964319891296327e-06,2.4612956622149795e-05,1.6218934888456715e-06
2026-09-21 21:53:12.050105088,-2.8516390102595324e-06,-9.56210533331614e-06,5.2313607739051804e-05,8.366399924852885e-06
2026-09-21 21:53:12.051105024,-8.793228516879026e-06,-1.0846773875528015e-05,9.318210504716262e-05,1.278244690183783e-05
2026-09-21 21:53:12.052104960,-7.990311132743955e-06,-9.722689355839975e-06,8.772227010922506e-05,1.6797033822513185e-05
2026-09-21 21:53:12.053104896,-1.0158188160858117e-05,-4.423433892952744e-06,5.311653148964979e-05,2.7716710974345915e-05
2026-09-21 21:53:12.054104576,-9.51585388975218e-06,4.328366685513174e-06,3.96275136154145e-05,1.35853642859729e-05
2026-09-21 21:53:12.055104512,-7.749436008452903e-06,2.1992551410221495e-05,2.734287772909738e-05,4.110937425139127e-06
2026-09-21 21:53:12.056104448,-1.144285579357529e-05,3.459835716057569e-05,1.6664074792061e-05,8.189759910237626e-07
2026-09-21 21:53:12.057104384,-1.4333359104057308e-05,1.7977963580051437e-05,-9.270161172025837e-06,-4.319696017773822e-06
2026-09-21 21:53:12.058104064,-9.837021025305148e-06,1.9196145331079606e-06,-5.897907612961717e-06,3.4686036087805405e-06
2026-09-21 21:53:12.059104000,-8.443453793915978e-07,-4.343141881690826e-06,-2.123363083228469e-05,-6.407281034626067e-06
2026-09-21 21:53:12.060103936,-4.698349130194401e-06,-2.1445284801302478e-05,-3.5124103305861354e-05,-7.691949576837942e-06
2026-09-21 21:53:12.061103616,-1.2458040146157146e-06,-3.292700421297923e-05,-5.792695810669102e-05,4.978089691576315e-07
2026-09-21 21:53:12.062103552,-4.3771819946414325e-06,-2.24890773097286e-05,-6.708021828671917e-05,1.5416017049574293e-06
2026-09-21 21:53:12.063103488,-1.8909988284576684e-05,-5.3869348448642995e-06,-4.194890061626211e-05,5.781007530458737e-07
2026-09-21 21:53:12.064103424,-2.5172745154122822e-05,-3.1387658054882195e-06,-4.773823548021028e-06,-3.051084149774397e-07
2026-09-21 21:53:12.065103104,-8.07060223451117e-06,-1.0511802202017861e-06,1.9956036339863203e-05,4.978089691576315e-07
2026-09-21 21:53:12.066103040,3.41111763191293e-06,-1.0525606739975046e-05,3.344504875713028e-05,-3.1153194868238643e-06
2026-09-21 21:53:12.067102976,5.498702648765175e-06,-1.2211733519507106e-05,2.116041287081316e-05,1.4613099210691871e-06
2026-09-21 21:53:12.068102656,2.2600845113629475e-05,-2.6343081117374822e-05,1.0080150786961894e-05,-1.509484718553722e-06
2026-09-21 21:53:12.069102592,2.0352676074253395e-05,-1.68686547112884e-05,1.3452404346026015e-05,-5.20290495842346e-06
2026-09-21 21:53:12.070102528,2.6615432943799533e-05,-4.8248925850202795e-06,1.0401317013020162e-05,-2.7138607947563287e-06
2026-09-21 21:53:12.071102464,2.4768722141743638e-05,9.30645637708949e-06,1.3131236300978344e-05,-7.611657565576024e-06
2026-09-21 21:53:12.072102144,2.6454848921275698e-05,1.1153165360155981e-05,1.0642193046805914e-05,-5.684655661752913e-06
2026-09-21 21:53:12.073102080,1.8666549294721335e-05,1.6291836800519377e-05,-1.930662983795628e-05,2.1036439648014493e-06
2026-09-21 21:53:12.074102016,1.7301588741247542e-05,2.0948758901795372e-05,-3.978102540713735e-05,-3.195611498085782e-06
2026-09-21 21:53:12.075101952,1.344758493360132e-05,1.958379834832158e-05,-1.3846790352545213e-05,-2.2321105461742263e-06
2026-09-21 21:53:12.076101632,1.6900130503927357e-05,2.0868466890533455e-05,3.0144765332806855e-06,-4.881738277617842e-06
2026-09-21 21:53:12.077101568,3.0096584850980435e-06,1.7415921320207417e-05,-1.2321247595536988e-05,-1.0502160876058042e-05
2026-09-21 21:53:12.078101504,1.16294859253685e-06,1.4378634887179942e-06,-3.1751849746797234e-05,-6.889032192702871e-06
2026-09-21 21:53:12.079101184,-3.975723302573897e-06,-8.103051527541538e-07,-5.4554708185605705e-05,-9.474424587097019e-07
2026-09-21 21:53:12.080101120,6.811978323639778e-07,9.627622603147756e-06,-5.7605793699622154e-05,-9.779534593690187e-06
2026-09-21 21:53:12.081101056,7.746871233393904e-06,2.2875759896123782e-05,-3.817519245785661e-05,-3.918237325706286e-06
2026-09-21 21:53:12.082100992,9.031539775605779e-06,2.4561888494645245e-05,-1.971938417000274e-07,7.804357665008865e-06
2026-09-21 21:53:12.083100672,5.578994660027092e-06,3.548156746546738e-05,8.170038927346468e-05,1.605848609642635e-08
2026-09-21 21:53:12.084100608,1.0878249668166973e-05,2.2634885681327432e-05,9.334269270766526e-05,-1.3489011507772375e-06
2026-09-21 21:53:12.085100544,9.914748261508066e-06,7.0582859734713566e-06,6.146686791907996e-05,2.505102656868985e-06
2026-09-21 21:53:12.086100224,7.265121439559152e-06,4.970700956619112e-06,3.25618420902174e-05,1.0694860975490883e-05
2026-09-21 21:53:12.087100160,4.856369287153939e-06,-8.277437700598966e-06,2.3810040147509426e-05,7.563482995465165e-06
2026-09-21 21:53:12.088100096,-1.7275544905714924e-06,-9.963564480131026e-06,1.5861156498431228e-05,6.599982043553609e-06
2026-09-21 21:53:12.089100032,-6.14360078543541e-06,-1.775186501618009e-05,8.634898222226184e-06,3.950354312109994e-06
2026-09-21 21:53:12.090099712,-6.946518169570481e-06,-2.192703504988458e-05,-1.111687106458703e-05,1.5416017049574293e-06
2026-09-21 21:53:12.091099648,-1.8881378309743013e-06,-2.843066795321647e-05,-1.70584607985802e-05,8.189759910237626e-07
2026-09-21 21:53:12.092099584,-2.5304718747065635e-06,-2.4978122382890433e-05,-3.3437976526329294e-05,-1.1080260264861863e-06
2026-09-21 21:53:12.093099520,-7.640533681296802e-07,-9.00006307347212e-06,-1.8664295566850342e-05,-2.874444362532813e-06
2026-09-21 21:53:12.094099200,7.614898436258954e-07,-6.751894488843391e-06,-1.4167957488098182e-05,-4.399987574288389e-06
2026-09-21 21:53:12.095099136,-4.698349130194401e-06,1.6291836800519377e-05,-1.8833201238521724e-06,-1.9109434106212575e-06
2026-09-21 21:53:12.096099072,3.600311799800693e-07,1.3240750377008226e-05,9.196940482070204e-06,4.753271696245065e-06
2026-09-21 21:53:12.097098752,-2.823030911258684e-07,1.0510831089050043e-05,1.9313702068757266e-05,-7.852532689867076e-06
2026-09-21 21:53:12.098098688,-4.45747400590335e-06,1.2999876162211876e-05,1.0160440979234409e-05,-9.538659469399136e-06
2026-09-21 21:53:12.099098624,-7.107101737346966e-06,1.0751707122835796e-05,-1.4970874872233253e-05,-4.881738277617842e-06
2026-09-21 21:53:12.100098560,3.600311799800693e-07,4.488949798542308e-06,-3.8576650695176795e-05,-9.056909220817033e-06
2026-09-21 21:53:12.101098240,1.403823716827901e-06,6.335660600598203e-06,-3.552556154318154e-05,-2.5532772269798443e-06
2026-09-21 21:53:12.102098176,2.3673246687394567e-06,1.196988364426943e-06,-6.619701161980629e-05,-6.005822797305882e-06
2026-09-21 21:53:12.103098112,-2.823030911258684e-07,5.853909442521399e-06,-4.572261241264641e-05,-4.962029834132409e-06
2026-09-21 21:53:12.104098048,3.7322847674658988e-06,1.8700589862419292e-05,-4.854115104535595e-06,-5.925530786043964e-06
2026-09-21 21:53:12.105097728,-4.296890438126866e-06,2.383926221227739e-05,1.1525401532708202e-05,-5.042321845394326e-06
2026-09-21 21:53:12.106097664,-5.340682946552988e-06,3.4451572901161853e-06,3.625526005635038e-05,3.789770516959834e-06
2026-09-21 21:53:12.107097600,-5.23178243838629e-07,-4.8248925850202795e-06,6.965662760194391e-05,3.3883118248922983e-06
2026-09-21 21:53:12.108097280,-3.4136812701035524e-06,-2.8591250156750903e-05,6.516028952319175e-05,2.2642275325779337e-06
2026-09-21 21:53:12.109097216,1.0023650247603655e-06,-2.6102206902578473e-05,6.925516936462373e-05,3.308020041004056e-06
2026-09-21 21:53:12.110097152,5.016952400183072e-06,-2.3854037863202393e-05,5.817490819026716e-05,1.0052526704384945e-05
2026-09-21 21:53:12.111097088,1.403823716827901e-06,-2.5941622880054638e-05,6.829166522948071e-05,7.402899427688681e-06
2026-09-21 21:53:12.112096768,4.6957852646301035e-06,-5.065767709311331e-06,2.8306378226261586e-05,8.205816811823752e-06
2026-09-21 21:53:12.113096704,4.1337430047860835e-06,-2.3358484213531483e-06,-2.0832172594964504e-05,-2.7138607947563287e-06
2026-09-21 21:53:12.114096640,4.936660388921155e-06,-1.6132224800458062e-06,-4.058394188177772e-05,-1.0502160876058042e-05
2026-09-21 21:53:12.115096320,5.338119535736041e-06,-2.0481784304138273e-05,-4.652553252526559e-05,-9.137201232078951e-06
2026-09-21 21:53:12.116096256,3.3308256206510123e-06,-1.293435889238026e-05,-5.1985371101181954e-05,-2.633569238241762e-06
2026-09-21 21:53:12.117096192,8.790663741820026e-06,-1.4526389122693217e-06,-3.72116883227136e-05,8.189759910237626e-07
2026-09-21 21:53:12.118096128,1.4411087249754928e-05,8.985288332041819e-06,-1.4729999747942202e-05,8.205816811823752e-06
2026-09-21 21:53:12.119095808,7.827163244655821e-06,1.4605710930482019e-05,-2.7014637453248724e-05,1.4950323929951992e-05
2026-09-21 21:53:12.120095744,1.6446988411189523e-06,9.467038580623921e-06,-3.809489862760529e-05,2.643204243213404e-05
2026-09-21 21:53:12.121095680,-2.3698885343037546e-06,4.8101169340952765e-06,-4.146715218666941e-05,9.169317308987956e-06
2026-09-21 21:53:12.122095616,-8.95381162990816e-06,6.349460477395041e-07,-2.6131427148357034e-05,-2.312402102688793e-06
2026-09-21 21:53:12.123095296,-9.837021025305148e-06,-5.868685548193753e-06,-1.224095558427507e-05,3.950354312109994e-06
2026-09-21 21:53:12.124095232,-9.034103641170077e-06,-4.744601028505713e-06,-9.75191142060794e-06,9.570776455802843e-06
2026-09-21 21:53:12.125095168,-9.756729923537932e-06,5.546544912249374e-07,-2.123363083228469e-05,9.795594451134093e-07
2026-09-21 21:53:12.126094848,-1.1683731827361044e-05,7.299161097762408e-06,-1.9146045815432444e-05,-6.808740181440953e-06
2026-09-21 21:53:12.127094784,-1.706327748252079e-05,1.5248045201587956e-05,-9.671620318840723e-06,-8.173699825420044e-06
2026-09-21 21:53:12.128094720,-1.6340653019142337e-05,9.948788829206023e-06,-1.1357746188878082e-05,-6.889032192702871e-06
2026-09-21 21:53:12.129094656,-6.464767466241028e-06,8.985288332041819e-06,-1.6014668290154077e-05,-5.764947673014831e-06
2026-09-21 21:53:12.130094336,-2.2895967504155124e-06,-4.2628503251762595e-06,5.3429366744239815e-06,-6.808740181440953e-06
2026-09-21 21:53:12.131094272,-1.004928662950988e-06,-1.7510988982394338e-05,5.143040107213892e-05,-7.772240678605158e-06
2026-09-21 21:53:12.132094208,-4.45747400590335e-06,-2.6102206902578473e-05,7.118217035895213e-05,-5.122613401908893e-06
2026-09-21 21:53:12.133094144,-3.4136812701035524e-06,-2.1445284801302478e-05,8.908722520573065e-05,-4.319696017773822e-06
2026-09-21 21:53:12.134093824,5.338119535736041e-06,-1.1569399248401169e-05,8.362739026779309e-05,7.386842071355204e-07
2026-09-21 21:53:12.135093760,1.3527876944863237e-05,-5.065767709311331e-06,5.8897534472635016e-05,2.6656862246454693e-06
2026-09-21 21:53:12.136093696,2.0914718334097415e-05,-1.6132224800458062e-06,1.835020157159306e-05,2.1036439648014493e-06
2026-09-21 21:53:12.137093376,3.1593521271133795e-05,8.021787834877614e-06,1.9706831153598614e-06,5.797064204671187e-06
2026-09-21 21:53:12.138093312,2.7418349418439902e-05,1.4525418919220101e-05,-1.280299784411909e-05,4.351813004177529e-06
2026-09-21 21:53:12.139093248,2.356434561079368e-05,2.0386716641951352e-05,-2.629201117088087e-05,3.372255150679848e-07
2026-09-21 21:53:12.140093184,2.7016891181119718e-05,3.002172707056161e-05,-2.2197133148438297e-05,1.8627687268235604e-06
2026-09-21 21:53:12.141092864,2.388551365584135e-05,2.351809416722972e-05,-3.327739250380546e-05,7.322607416426763e-06
2026-09-21 21:53:12.142092800,1.1279707905487157e-05,1.0591123100311961e-05,-3.664964606286958e-05,5.1547303883126006e-06
2026-09-21 21:53:12.143092736,9.593582035449799e-06,8.904996320779901e-06,-4.5802906242897734e-05,3.2277284844894893e-06
2026-09-21 21:53:12.144092416,4.936660388921155e-06,1.0430539077788126e-05,-5.96933787164744e-05,-9.474424587097019e-07
2026-09-21 21:53:12.145092352,-2.129013182639028e-06,-2.416140432615066e-06,-6.218242197064683e-05,-3.5970701901533175e-06
2026-09-21 21:53:12.146092288,-5.983017217658926e-06,-7.300135962395871e-07,-4.146715218666941e-05,-5.042321845394326e-06
2026-09-21 21:53:12.147092224,2.2067411009629723e-06,-1.4861360796203371e-05,-5.175282240088563e-06,-1.991235421883175e-06
2026-09-21 21:53:12.148091904,3.2505336093890946e-06,-2.81094999081688e-05,1.955457810254302e-05,8.189759910237626e-07
2026-09-21 21:53:12.149091840,9.995040272769984e-06,-2.642337312863674e-05,3.3043590519810095e-05,-3.195611498085782e-06
2026-09-21 21:53:12.150091776,7.34541345082107e-06,-4.055471799802035e-05,3.713847036124207e-05,-4.7211547098413575e-06
2026-09-21 21:53:12.151091712,3.3308256206510123e-06,-5.002914622309618e-05,4.083189196535386e-05,-1.2686093668889953e-06
2026-09-21 21:53:12.152091392,-2.823030911258684e-07,-2.4094912077998742e-05,3.745963840628974e-05,-8.671506748214597e-07
2026-09-21 21:53:12.153091328,3.0096584850980435e-06,1.8393226355328807e-06,4.051072392030619e-05,3.372255150679848e-07
2026-09-21 21:53:12.154091264,2.4476166800013743e-06,1.8700589862419292e-05,3.2240674045169726e-05,-2.1518185349123087e-06
2026-09-21 21:53:12.155090944,-2.0201107986395073e-07,2.7853848223458044e-05,2.4693250452401116e-05,2.2642275325779337e-06
2026-09-21 21:53:12.156090880,6.301620032900246e-06,2.5123930754489265e-05,1.3211528312240262e-05,-7.065673344186507e-07
2026-09-21 21:53:12.157090816,5.418411546997959e-06,2.7612974008661695e-05,1.1123943295388017e-05,-3.3561950658622663e-06
2026-09-21 21:53:12.158090752,2.3673246687394567e-06,2.4722468879190274e-05,-7.4234508247172926e-06,4.978089691576315e-07
2026-09-21 21:53:12.159090432,6.3819120441621635e-06,2.2474301658803597e-05,-2.452559238008689e-05,-9.474424587097019e-07
2026-09-21 21:53:12.160090368,2.7687833608069923e-06,1.621154478925746e-05,-4.058394188177772e-05,-2.2321105461742263e-06
2026-09-21 21:53:12.161090304,-7.107101737346966e-06,1.8058255591313355e-05,-5.945250450167805e-05,-3.436486622376833e-06
2026-09-21 21:53:12.162090240,-5.742142093367875e-06,1.2919584150949959e-05,-4.178832023171708e-05,-9.474424587097019e-07
2026-09-21 21:53:12.163089920,-4.45747400590335e-06,1.7576505342731252e-05,-2.1073048628750257e-05,-1.9109434106212575e-06
2026-09-21 21:53:12.164089856,-1.004928662950988e-06,1.3401334399532061e-05,-1.6424449995611212e-06,-6.407281034626067e-06
2026-09-21 21:53:12.165089792,-2.0487213987507857e-06,1.2116665857320186e-05,1.6021740520955063e-05,-9.699243491922971e-06
2026-09-21 21:53:12.166089472,4.6957852646301035e-06,3.926907538698288e-06,4.54001929028891e-06,-1.1465661373222247e-05
2026-09-21 21:53:12.167089408,3.8125758692331146e-06,7.955300702633394e-07,-1.0073078556160908e-05,-6.567865057149902e-06
2026-09-21 21:53:12.168089344,3.0096584850980435e-06,-4.021975200885208e-06,1.0802775250340346e-05,2.023352180913207e-06
2026-09-21 21:53:12.169089280,3.7322847674658988e-06,-6.671602932328824e-06,1.3532694538298529e-05,-1.4291929346654797e-06
2026-09-21 21:53:12.170088960,1.8052824088954367e-06,-4.2628503251762595e-06,1.10436512841261e-05,1.702185159047076e-06
2026-09-21 21:53:12.171088896,-2.3698885343037546e-06,-3.5402247249294305e-06,2.252537160529755e-05,2.6656862246454693e-06
2026-09-21 21:53:12.172088832,-8.311478268296923e-06,-8.116854587569833e-06,3.6568098948919214e-06,7.081732292135712e-06
2026-09-21 21:53:12.173088512,-1.0852204468392301e-06,-6.350435796775855e-06,-1.4007374375069048e-05,7.884649676270783e-06
2026-09-21 21:53:12.174088448,-1.2171952334938396e-07,-4.8248925850202795e-06,-1.6255542504950427e-05,8.607275049143936e-06
2026-09-21 21:53:12.175088384,-1.004928662950988e-06,-1.0284731615683995e-05,-5.81761605644715e-06,6.680273600068176e-06
2026-09-21 21:53:12.176088320,-1.8078462744597346e-06,-1.3897860299039166e-05,-7.664326403755695e-06,2.505102656868985e-06
